245.000000	2349.078935	-207.513596	-5775.601360	0.000000	0.000000	0.000000	0.000000	0.000000	0.000000	0.000000	0.000000	192.000000	0.000000	0.000000	0.000000	0.000000	0.000000	0.000000	0.000000	0.000000	0.000000	1749719061.398861	0.000000
246.000000	2401.158500	-220.142331	-5809.084273	0.000000	0.000000	0.000000	0.000000	0.000000	0.000000	0.000000	0.000000	192.000000	0.000000	0.000000	0.000000	0.000000	0.000000	0.000000	0.000000	0.000000	0.000000	1749719061.398939	0.000000
247.000000	2480.171917	-228.792456	-5868.986949	0.000000	0.000000	0.000000	0.000000	0.000000	0.000000	0.000000	0.000000	192.000000	0.000000	0.000000	0.000000	0.000000	0.000000	0.000000	0.000000	0.000000	0.000000	1749719061.398999	0.000000
248.000000	2494.253516	-223.495093	-5870.283350	0.000000	0.000000	0.000000	0.000000	0.000000	0.000000	0.000000	0.000000	192.000000	0.000000	0.000000	0.000000	0.000000	0.000000	0.000000	0.000000	0.000000	0.000000	1749719061.399226	0.000000
0.000000	0.000000	0.000000	0.000000	0.000000	0.000000	0.000000	0.000000	0.000000	-0.118000	-0.034000	0.998000	192.000000	252.000000	80.000000	254.000000	240.000000	31.000000	48.000000	0.000000	0.000000	0.000000	1749719061.463944	0.000000
1.000000	2479.568419	-170.677921	-5865.343614	0.000000	0.000000	0.000000	0.000000	0.000000	-0.118000	-0.034000	0.998000	192.000000	0.000000	0.000000	0.000000	0.000000	0.000000	0.000000	0.000000	0.000000	0.000000	1749719061.480837	0.000000
2.000000	2406.008828	-162.743051	-5812.705256	0.000000	0.000000	0.000000	0.000000	0.000000	-0.118000	-0.034000	0.998000	192.000000	0.000000	0.000000	0.000000	0.000000	0.000000	0.000000	0.000000	0.000000	0.000000	1749719061.483838	0.000000
3.000000	2405.114759	-167.839249	-5820.595422	0.000000	0.000000	0.000000	0.000000	0.000000	-0.118000	-0.034000	0.998000	192.000000	0.000000	0.000000	0.000000	0.000000	0.000000	0.000000	0.000000	0.000000	0.000000	1749719061.487969	0.000000
4.000000	2484.821079	-180.199764	-5878.531143	0.000000	0.000000	0.000000	0.000000	0.000000	-0.118000	-0.034000	0.998000	192.000000	0.000000	0.000000	0.000000	0.000000	0.000000	0.000000	0.000000	0.000000	0.000000	1749719061.490833	0.000000
5.000000	2533.145551	-182.993732	-5904.950905	0.000000	0.000000	0.000000	0.000000	0.000000	-0.118000	-0.034000	0.998000	192.000000	0.000000	0.000000	0.000000	0.000000	0.000000	0.000000	0.000000	0.000000	0.000000	1749719061.493958	0.000000
6.000000	2484.575210	-172.801336	-5864.181324	0.000000	0.000000	0.000000	0.000000	0.000000	-0.118000	-0.034000	0.998000	192.000000	0.000000	0.000000	0.000000	0.000000	0.000000	0.000000	0.000000	0.000000	0.000000	1749719061.497941	0.000000
7.000000	2404.690075	-167.101642	-5810.023047	0.000000	0.000000	0.000000	0.000000	0.000000	-0.116000	-0.032000	1.008000	192.000000	252.000000	96.000000	255.000000	0.000000	31.000000	128.000000	0.000000	0.000000	0.000000	1749719061.501902	0.000000
8.000000	2405.293573	-170.856735	-5819.701352	0.000000	0.000000	0.000000	0.000000	0.000000	-0.116000	-0.032000	1.008000	192.000000	0.000000	0.000000	0.000000	0.000000	0.000000	0.000000	0.000000	0.000000	0.000000	1749719061.505936	0.000000
9.000000	2485.916315	-179.931543	-5881.347463	0.000000	0.000000	0.000000	0.000000	0.000000	-0.116000	-0.032000	1.008000	192.000000	0.000000	0.000000	0.000000	0.000000	0.000000	0.000000	0.000000	0.000000	0.000000	1749719061.510949	0.000000
10.000000	2530.530397	-182.501993	-5909.443606	0.000000	0.000000	0.000000	0.000000	0.000000	-0.116000	-0.032000	1.008000	192.000000	0.000000	0.000000	0.000000	0.000000	0.000000	0.000000	0.000000	0.000000	0.000000	1749719061.514952	0.000000
11.000000	2482.563553	-168.330987	-5864.896579	0.000000	0.000000	0.000000	0.000000	0.000000	-0.116000	-0.032000	1.008000	192.000000	0.000000	0.000000	0.000000	0.000000	0.000000	0.000000	0.000000	0.000000	0.000000	1749719061.518965	0.000000
12.000000	2406.187642	-159.233827	-5809.128977	0.000000	0.000000	0.000000	0.000000	0.000000	-0.116000	-0.032000	1.008000	192.000000	0.000000	0.000000	0.000000	0.000000	0.000000	0.000000	0.000000	0.000000	0.000000	1749719061.521928	0.000000
13.000000	2410.367419	-165.402909	-5818.919041	0.000000	0.000000	0.000000	0.000000	0.000000	-0.116000	-0.032000	1.008000	192.000000	0.000000	0.000000	0.000000	0.000000	0.000000	0.000000	0.000000	0.000000	0.000000	1749719061.526004	0.000000
14.000000	2490.386664	-173.248371	-5877.592370	0.000000	0.000000	0.000000	0.000000	0.000000	-0.116000	-0.032000	1.008000	192.000000	0.000000	0.000000	0.000000	0.000000	0.000000	0.000000	0.000000	0.000000	0.000000	1749719061.529979	0.000000
15.000000	2536.163036	-176.668188	-5905.912030	0.000000	0.000000	0.000000	0.000000	0.000000	-0.116000	-0.032000	1.008000	192.000000	0.000000	0.000000	0.000000	0.000000	0.000000	0.000000	0.000000	0.000000	0.000000	1749719061.533991	0.000000
16.000000	2488.978504	-168.085118	-5865.455373	0.000000	0.000000	0.000000	0.000000	0.000000	-0.116000	-0.032000	1.008000	192.000000	0.000000	0.000000	0.000000	0.000000	0.000000	0.000000	0.000000	0.000000	0.000000	1749719061.537912	0.000000
17.000000	2416.089465	-158.138592	-5812.928774	0.000000	0.000000	0.000000	0.000000	0.000000	-0.118000	-0.030000	1.006000	192.000000	252.000000	80.000000	255.000000	16.000000	31.000000	112.000000	0.000000	0.000000	0.000000	1749719061.543038	0.000000
18.000000	2419.151654	-164.531191	-5819.924870	0.000000	0.000000	0.000000	0.000000	0.000000	-0.118000	-0.030000	1.006000	192.000000	0.000000	0.000000	0.000000	0.000000	0.000000	0.000000	0.000000	0.000000	0.000000	1749719061.547051	0.000000
19.000000	2494.164109	-177.763424	-5878.911123	0.000000	0.000000	0.000000	0.000000	0.000000	-0.118000	-0.030000	1.006000	192.000000	0.000000	0.000000	0.000000	0.000000	0.000000	0.000000	0.000000	0.000000	0.000000	1749719061.549967	0.000000
20.000000	2541.706269	-179.506860	-5909.018923	0.000000	0.000000	0.000000	0.000000	0.000000	-0.118000	-0.030000	1.006000	192.000000	0.000000	0.000000	0.000000	0.000000	0.000000	0.000000	0.000000	0.000000	0.000000	1749719061.554098	0.000000
21.000000	2495.214641	-168.800374	-5867.534085	0.000000	0.000000	0.000000	0.000000	0.000000	-0.118000	-0.030000	1.006000	192.000000	0.000000	0.000000	0.000000	0.000000	0.000000	0.000000	0.000000	0.000000	0.000000	1749719061.558049	0.000000
22.000000	2421.990326	-159.613807	-5814.314582	0.000000	0.000000	0.000000	0.000000	0.000000	-0.118000	-0.030000	1.006000	192.000000	0.000000	0.000000	0.000000	0.000000	0.000000	0.000000	0.000000	0.000000	0.000000	1749719061.561992	0.000000
23.000000	2419.486930	-170.208534	-5824.395218	0.000000	0.000000	0.000000	0.000000	0.000000	-0.118000	-0.030000	1.006000	192.000000	0.000000	0.000000	0.000000	0.000000	0.000000	0.000000	0.000000	0.000000	0.000000	1749719061.565992	0.000000
24.000000	2497.740388	-186.011217	-5883.247362	0.000000	0.000000	0.000000	0.000000	0.000000	-0.118000	-0.030000	1.006000	192.000000	0.000000	0.000000	0.000000	0.000000	0.000000	0.000000	0.000000	0.000000	0.000000	1749719061.570989	0.000000
25.000000	2547.383612	-184.379540	-5910.225917	0.000000	0.000000	0.000000	0.000000	0.000000	-0.118000	-0.030000	1.006000	192.000000	0.000000	0.000000	0.000000	0.000000	0.000000	0.000000	0.000000	0.000000	0.000000	1749719061.575066	0.000000
26.000000	2503.350676	-172.756633	-5868.450507	0.000000	0.000000	0.000000	0.000000	0.000000	-0.118000	-0.030000	1.006000	192.000000	0.000000	0.000000	0.000000	0.000000	0.000000	0.000000	0.000000	0.000000	0.000000	1749719061.578063	0.000000
27.000000	2424.136093	-161.871333	-5814.806320	0.000000	0.000000	0.000000	0.000000	0.000000	-0.116000	-0.032000	1.008000	192.000000	252.000000	96.000000	255.000000	0.000000	31.000000	128.000000	0.000000	0.000000	0.000000	1749719061.582182	0.000000
28.000000	2420.559814	-167.034586	-5824.171701	0.000000	0.000000	0.000000	0.000000	0.000000	-0.116000	-0.032000	1.008000	192.000000	0.000000	0.000000	0.000000	0.000000	0.000000	0.000000	0.000000	0.000000	0.000000	1749719061.586240	0.000000
29.000000	2493.717074	-178.791604	-5886.242495	0.000000	0.000000	0.000000	0.000000	0.000000	-0.116000	-0.032000	1.008000	192.000000	0.000000	0.000000	0.000000	0.000000	0.000000	0.000000	0.000000	0.000000	0.000000	1749719061.590044	0.000000
30.000000	2543.762629	-178.299866	-5913.176347	0.000000	0.000000	0.000000	0.000000	0.000000	-0.116000	-0.032000	1.008000	192.000000	0.000000	0.000000	0.000000	0.000000	0.000000	0.000000	0.000000	0.000000	0.000000	1749719061.594050	0.000000
31.000000	2500.288487	-167.369862	-5866.438850	0.000000	0.000000	0.000000	0.000000	0.000000	-0.116000	-0.032000	1.008000	192.000000	0.000000	0.000000	0.000000	0.000000	0.000000	0.000000	0.000000	0.000000	0.000000	1749719061.599124	0.000000
32.000000	2422.593823	-160.753746	-5814.783968	0.000000	0.000000	0.000000	0.000000	0.000000	-0.116000	-0.032000	1.008000	192.000000	0.000000	0.000000	0.000000	0.000000	0.000000	0.000000	0.000000	0.000000	0.000000	1749719061.603126	0.000000
33.000000	2421.252718	-170.364996	-5822.271803	0.000000	0.000000	0.000000	0.000000	0.000000	-0.116000	-0.032000	1.008000	192.000000	0.000000	0.000000	0.000000	0.000000	0.000000	0.000000	0.000000	0.000000	0.000000	1749719061.606176	0.000000
34.000000	2500.467300	-182.144366	-5879.224048	0.000000	0.000000	0.000000	0.000000	0.000000	-0.116000	-0.032000	1.008000	192.000000	0.000000	0.000000	0.000000	0.000000	0.000000	0.000000	0.000000	0.000000	0.000000	1749719061.610192	0.000000
35.000000	2543.427353	-181.652627	-5907.990743	0.000000	0.000000	0.000000	0.000000	0.000000	-0.116000	-0.032000	1.008000	192.000000	0.000000	0.000000	0.000000	0.000000	0.000000	0.000000	0.000000	0.000000	0.000000	1749719061.614282	0.000000
36.000000	2494.029998	-171.639046	-5864.069565	0.000000	0.000000	0.000000	0.000000	0.000000	-0.116000	-0.032000	1.008000	192.000000	0.000000	0.000000	0.000000	0.000000	0.000000	0.000000	0.000000	0.000000	0.000000	1749719061.618162	0.000000
37.000000	2424.024334	-163.391252	-5806.379712	0.000000	0.000000	0.000000	0.000000	0.000000	-0.118000	-0.036000	1.000000	192.000000	252.000000	80.000000	254.000000	224.000000	31.000000	64.000000	0.000000	0.000000	0.000000	1749719061.622090	0.000000
38.000000	2426.259509	-168.465098	-5816.415646	0.000000	0.000000	0.000000	0.000000	0.000000	-0.118000	-0.036000	1.000000	192.000000	0.000000	0.000000	0.000000	0.000000	0.000000	0.000000	0.000000	0.000000	0.000000	1749719061.626139	0.000000
39.000000	2500.310838	-180.870316	-5877.793536	0.000000	0.000000	0.000000	0.000000	0.000000	-0.118000	-0.036000	1.000000	192.000000	0.000000	0.000000	0.000000	0.000000	0.000000	0.000000	0.000000	0.000000	0.000000	1749719061.631124	0.000000
40.000000	2546.154266	-185.675941	-5905.599106	0.000000	0.000000	0.000000	0.000000	0.000000	-0.118000	-0.036000	1.000000	192.000000	0.000000	0.000000	0.000000	0.000000	0.000000	0.000000	0.000000	0.000000	0.000000	1749719061.634153	0.000000
41.000000	2499.394417	-177.875182	-5860.336824	0.000000	0.000000	0.000000	0.000000	0.000000	-0.118000	-0.036000	1.000000	192.000000	0.000000	0.000000	0.000000	0.000000	0.000000	0.000000	0.000000	0.000000	0.000000	1749719061.638168	0.000000
42.000000	2423.957279	-170.454403	-5804.189241	0.000000	0.000000	0.000000	0.000000	0.000000	-0.118000	-0.036000	1.000000	192.000000	0.000000	0.000000	0.000000	0.000000	0.000000	0.000000	0.000000	0.000000	0.000000	1749719061.642244	0.000000
43.000000	2426.415971	-173.382482	-5813.040532	0.000000	0.000000	0.000000	0.000000	0.000000	-0.118000	-0.036000	1.000000	192.000000	0.000000	0.000000	0.000000	0.000000	0.000000	0.000000	0.000000	0.000000	0.000000	1749719061.646182	0.000000
44.000000	2504.915298	-184.446595	-5874.239609	0.000000	0.000000	0.000000	0.000000	0.000000	-0.118000	-0.036000	1.000000	192.000000	0.000000	0.000000	0.000000	0.000000	0.000000	0.000000	0.000000	0.000000	0.000000	1749719061.650104	0.000000
45.000000	2552.256292	-185.899459	-5900.212336	0.000000	0.000000	0.000000	0.000000	0.000000	-0.118000	-0.036000	1.000000	192.000000	0.000000	0.000000	0.000000	0.000000	0.000000	0.000000	0.000000	0.000000	0.000000	1749719061.654189	0.000000
46.000000	2501.674295	-176.735243	-5854.547722	0.000000	0.000000	0.000000	0.000000	0.000000	-0.118000	-0.036000	1.000000	192.000000	0.000000	0.000000	0.000000	0.000000	0.000000	0.000000	0.000000	0.000000	0.000000	1749719061.659280	0.000000
47.000000	2421.900919	-166.811069	-5799.495375	0.000000	0.000000	0.000000	0.000000	0.000000	-0.118000	-0.034000	1.004000	192.000000	252.000000	80.000000	254.000000	240.000000	31.000000	96.000000	0.000000	0.000000	0.000000	1749719061.662232	0.000000
48.000000	2427.399448	-172.443708	-5810.850061	0.000000	0.000000	0.000000	0.000000	0.000000	-0.118000	-0.034000	1.004000	192.000000	0.000000	0.000000	0.000000	0.000000	0.000000	0.000000	0.000000	0.000000	0.000000	1749719061.666183	0.000000
49.000000	2505.608202	-187.844060	-5871.155068	0.000000	0.000000	0.000000	0.000000	0.000000	-0.118000	-0.034000	1.004000	192.000000	0.000000	0.000000	0.000000	0.000000	0.000000	0.000000	0.000000	0.000000	0.000000	1749719061.670291	0.000000
50.000000	2553.373880	-187.821709	-5900.279391	0.000000	0.000000	0.000000	0.000000	0.000000	-0.118000	-0.034000	1.004000	192.000000	0.000000	0.000000	0.000000	0.000000	0.000000	0.000000	0.000000	0.000000	0.000000	1749719061.674404	0.000000
51.000000	2503.596545	-172.868392	-5852.401954	0.000000	0.000000	0.000000	0.000000	0.000000	-0.118000	-0.034000	1.004000	192.000000	0.000000	0.000000	0.000000	0.000000	0.000000	0.000000	0.000000	0.000000	0.000000	1749719061.678273	0.000000
52.000000	2423.487893	-165.760537	-5800.456500	0.000000	0.000000	0.000000	0.000000	0.000000	-0.118000	-0.034000	1.004000	192.000000	0.000000	0.000000	0.000000	0.000000	0.000000	0.000000	0.000000	0.000000	0.000000	1749719061.682222	0.000000
53.000000	2426.907709	-173.918924	-5812.459387	0.000000	0.000000	0.000000	0.000000	0.000000	-0.118000	-0.034000	1.004000	192.000000	0.000000	0.000000	0.000000	0.000000	0.000000	0.000000	0.000000	0.000000	0.000000	1749719061.686228	0.000000
54.000000	2510.592641	-185.452424	-5875.357196	0.000000	0.000000	0.000000	0.000000	0.000000	-0.118000	-0.034000	1.004000	192.000000	0.000000	0.000000	0.000000	0.000000	0.000000	0.000000	0.000000	0.000000	0.000000	1749719061.690294	0.000000
55.000000	2559.632368	-186.413549	-5904.190946	0.000000	0.000000	0.000000	0.000000	0.000000	-0.118000	-0.034000	1.004000	192.000000	0.000000	0.000000	0.000000	0.000000	0.000000	0.000000	0.000000	0.000000	0.000000	1749719061.694306	0.000000
56.000000	2506.032885	-174.455365	-5861.722632	0.000000	0.000000	0.000000	0.000000	0.000000	-0.118000	-0.034000	1.004000	192.000000	0.000000	0.000000	0.000000	0.000000	0.000000	0.000000	0.000000	0.000000	0.000000	1749719061.698205	0.000000
57.000000	2432.070962	-166.676958	-5810.648896	0.000000	0.000000	0.000000	0.000000	0.000000	-0.116000	-0.034000	1.006000	192.000000	252.000000	96.000000	254.000000	240.000000	31.000000	112.000000	0.000000	0.000000	0.000000	1749719061.702420	0.000000
58.000000	2432.160369	-175.148270	-5820.662477	0.000000	0.000000	0.000000	0.000000	0.000000	-0.116000	-0.034000	1.006000	192.000000	0.000000	0.000000	0.000000	0.000000	0.000000	0.000000	0.000000	0.000000	0.000000	1749719061.706319	0.000000
59.000000	2509.966792	-191.129767	-5878.128812	0.000000	0.000000	0.000000	0.000000	0.000000	-0.116000	-0.034000	1.006000	192.000000	0.000000	0.000000	0.000000	0.000000	0.000000	0.000000	0.000000	0.000000	0.000000	1749719061.710322	0.000000
60.000000	2555.407888	-190.995656	-5903.565097	0.000000	0.000000	0.000000	0.000000	0.000000	-0.116000	-0.034000	1.006000	192.000000	0.000000	0.000000	0.000000	0.000000	0.000000	0.000000	0.000000	0.000000	0.000000	1749719061.714314	0.000000
61.000000	2507.441045	-179.573915	-5856.425268	0.000000	0.000000	0.000000	0.000000	0.000000	-0.116000	-0.034000	1.006000	192.000000	0.000000	0.000000	0.000000	0.000000	0.000000	0.000000	0.000000	0.000000	0.000000	1749719061.718399	0.000000
62.000000	2429.142884	-169.225057	-5798.288381	0.000000	0.000000	0.000000	0.000000	0.000000	-0.116000	-0.034000	1.006000	192.000000	0.000000	0.000000	0.000000	0.000000	0.000000	0.000000	0.000000	0.000000	0.000000	1749719061.721364	0.000000
63.000000	2425.834826	-172.443708	-5809.419550	0.000000	0.000000	0.000000	0.000000	0.000000	-0.116000	-0.034000	1.006000	192.000000	0.000000	0.000000	0.000000	0.000000	0.000000	0.000000	0.000000	0.000000	0.000000	1749719061.726328	0.000000
64.000000	2506.502271	-188.648723	-5870.775088	0.000000	0.000000	0.000000	0.000000	0.000000	-0.116000	-0.034000	1.006000	192.000000	0.000000	0.000000	0.000000	0.000000	0.000000	0.000000	0.000000	0.000000	0.000000	1749719061.730470	0.000000
65.000000	2555.385537	-191.576802	-5897.619533	0.000000	0.000000	0.000000	0.000000	0.000000	-0.116000	-0.034000	1.006000	192.000000	0.000000	0.000000	0.000000	0.000000	0.000000	0.000000	0.000000	0.000000	0.000000	1749719061.734357	0.000000
66.000000	2504.825891	-177.294037	-5851.887864	0.000000	0.000000	0.000000	0.000000	0.000000	-0.120000	-0.038000	1.004000	192.000000	252.000000	64.000000	254.000000	208.000000	31.000000	96.000000	0.000000	0.000000	0.000000	1749719061.738328	0.000000
67.000000	2424.851349	-167.816897	-5795.561468	0.000000	0.000000	0.000000	0.000000	0.000000	-0.120000	-0.038000	1.004000	192.000000	0.000000	0.000000	0.000000	0.000000	0.000000	0.000000	0.000000	0.000000	0.000000	1749719061.742390	0.000000
68.000000	2429.299346	-173.136613	-5804.904497	0.000000	0.000000	0.000000	0.000000	0.000000	-0.120000	-0.038000	1.004000	192.000000	0.000000	0.000000	0.000000	0.000000	0.000000	0.000000	0.000000	0.000000	0.000000	1749719061.746392	0.000000
69.000000	2509.072722	-186.547659	-5867.802306	0.000000	0.000000	0.000000	0.000000	0.000000	-0.120000	-0.038000	1.004000	192.000000	0.000000	0.000000	0.000000	0.000000	0.000000	0.000000	0.000000	0.000000	0.000000	1749719061.749398	0.000000
70.000000	2554.245598	-188.000523	-5894.959676	0.000000	0.000000	0.000000	0.000000	0.000000	-0.120000	-0.038000	1.004000	192.000000	0.000000	0.000000	0.000000	0.000000	0.000000	0.000000	0.000000	0.000000	0.000000	1749719061.754422	0.000000
71.000000	2501.808405	-176.489374	-5850.569111	0.000000	0.000000	0.000000	0.000000	0.000000	-0.120000	-0.038000	1.004000	192.000000	0.000000	0.000000	0.000000	0.000000	0.000000	0.000000	0.000000	0.000000	0.000000	1749719061.758518	0.000000
72.000000	2423.331430	-168.107470	-5795.069730	0.000000	0.000000	0.000000	0.000000	0.000000	-0.120000	-0.038000	1.004000	192.000000	0.000000	0.000000	0.000000	0.000000	0.000000	0.000000	0.000000	0.000000	0.000000	1749719061.762586	0.000000
73.000000	2420.649221	-173.851868	-5805.887974	0.000000	0.000000	0.000000	0.000000	0.000000	-0.120000	-0.038000	1.004000	192.000000	0.000000	0.000000	0.000000	0.000000	0.000000	0.000000	0.000000	0.000000	0.000000	1749719061.766431	0.000000
74.000000	2498.053312	-187.821709	-5867.198809	0.000000	0.000000	0.000000	0.000000	0.000000	-0.120000	-0.038000	1.004000	192.000000	0.000000	0.000000	0.000000	0.000000	0.000000	0.000000	0.000000	0.000000	0.000000	1749719061.770378	0.000000
75.000000	2546.221321	-191.152119	-5896.434891	0.000000	0.000000	0.000000	0.000000	0.000000	-0.120000	-0.038000	1.004000	192.000000	0.000000	0.000000	0.000000	0.000000	0.000000	0.000000	0.000000	0.000000	0.000000	1749719061.774446	0.000000
76.000000	2499.975562	-178.165755	-5851.664347	0.000000	0.000000	0.000000	0.000000	0.000000	-0.118000	-0.032000	1.004000	192.000000	252.000000	80.000000	255.000000	0.000000	31.000000	96.000000	0.000000	0.000000	0.000000	1749719061.777400	0.000000
77.000000	2417.519977	-166.989883	-5795.539116	0.000000	0.000000	0.000000	0.000000	0.000000	-0.118000	-0.032000	1.004000	192.000000	0.000000	0.000000	0.000000	0.000000	0.000000	0.000000	0.000000	0.000000	0.000000	1749719061.782451	0.000000
78.000000	2421.073904	-169.582685	-5806.849099	0.000000	0.000000	0.000000	0.000000	0.000000	-0.118000	-0.032000	1.004000	192.000000	0.000000	0.000000	0.000000	0.000000	0.000000	0.000000	0.000000	0.000000	0.000000	1749719061.786537	0.000000
79.000000	2503.015399	-183.753691	-5869.098707	0.000000	0.000000	0.000000	0.000000	0.000000	-0.118000	-0.032000	1.004000	192.000000	0.000000	0.000000	0.000000	0.000000	0.000000	0.000000	0.000000	0.000000	0.000000	1749719061.790628	0.000000
80.000000	2548.814124	-188.916944	-5892.769205	0.000000	0.000000	0.000000	0.000000	0.000000	-0.118000	-0.032000	1.004000	192.000000	0.000000	0.000000	0.000000	0.000000	0.000000	0.000000	0.000000	0.000000	0.000000	1749719061.794585	0.000000
81.000000	2493.359446	-178.299866	-5845.629376	0.000000	0.000000	0.000000	0.000000	0.000000	-0.118000	-0.032000	1.004000	192.000000	0.000000	0.000000	0.000000	0.000000	0.000000	0.000000	0.000000	0.000000	0.000000	1749719061.798504	0.000000
82.000000	2417.698791	-169.225057	-5793.885087	0.000000	0.000000	0.000000	0.000000	0.000000	-0.118000	-0.032000	1.004000	192.000000	0.000000	0.000000	0.000000	0.000000	0.000000	0.000000	0.000000	0.000000	0.000000	1749719061.801493	0.000000
83.000000	2420.045724	-170.610865	-5807.117320	0.000000	0.000000	0.000000	0.000000	0.000000	-0.118000	-0.032000	1.004000	192.000000	0.000000	0.000000	0.000000	0.000000	0.000000	0.000000	0.000000	0.000000	0.000000	1749719061.805397	0.000000
84.000000	2500.288487	-183.977209	-5868.048175	0.000000	0.000000	0.000000	0.000000	0.000000	-0.118000	-0.032000	1.004000	192.000000	0.000000	0.000000	0.000000	0.000000	0.000000	0.000000	0.000000	0.000000	0.000000	1749719061.809467	0.000000
85.000000	2543.472057	-190.347456	-5893.707978	0.000000	0.000000	0.000000	0.000000	0.000000	-0.118000	-0.032000	1.004000	192.000000	0.000000	0.000000	0.000000	0.000000	0.000000	0.000000	0.000000	0.000000	0.000000	1749719061.814548	0.000000
86.000000	2493.113577	-179.462156	-5850.703222	0.000000	0.000000	0.000000	0.000000	0.000000	-0.118000	-0.038000	1.004000	192.000000	252.000000	80.000000	254.000000	208.000000	31.000000	96.000000	0.000000	0.000000	0.000000	1749719061.818690	0.000000
87.000000	2420.895090	-167.213400	-5791.649913	0.000000	0.000000	0.000000	0.000000	0.000000	-0.118000	-0.038000	1.004000	192.000000	0.000000	0.000000	0.000000	0.000000	0.000000	0.000000	0.000000	0.000000	0.000000	1749719061.822620	0.000000
88.000000	2423.733762	-172.264895	-5802.624619	0.000000	0.000000	0.000000	0.000000	0.000000	-0.118000	-0.038000	1.004000	192.000000	0.000000	0.000000	0.000000	0.000000	0.000000	0.000000	0.000000	0.000000	0.000000	1749719061.826452	0.000000
89.000000	2503.238917	-186.301790	-5868.897542	0.000000	0.000000	0.000000	0.000000	0.000000	-0.118000	-0.038000	1.004000	192.000000	0.000000	0.000000	0.000000	0.000000	0.000000	0.000000	0.000000	0.000000	0.000000	1749719061.830568	0.000000
90.000000	2550.289339	-188.492261	-5898.111272	0.000000	0.000000	0.000000	0.000000	0.000000	-0.118000	-0.038000	1.004000	192.000000	0.000000	0.000000	0.000000	0.000000	0.000000	0.000000	0.000000	0.000000	0.000000	1749719061.833536	0.000000
91.000000	2496.443986	-179.260991	-5847.462219	0.000000	0.000000	0.000000	0.000000	0.000000	-0.118000	-0.038000	1.004000	192.000000	0.000000	0.000000	0.000000	0.000000	0.000000	0.000000	0.000000	0.000000	0.000000	1749719061.837476	0.000000
92.000000	2418.704619	-167.235752	-5791.873430	0.000000	0.000000	0.000000	0.000000	0.000000	-0.118000	-0.038000	1.004000	192.000000	0.000000	0.000000	0.000000	0.000000	0.000000	0.000000	0.000000	0.000000	0.000000	1749719061.841536	0.000000
93.000000	2421.766808	-170.007368	-5803.541041	0.000000	0.000000	0.000000	0.000000	0.000000	-0.118000	-0.038000	1.004000	192.000000	0.000000	0.000000	0.000000	0.000000	0.000000	0.000000	0.000000	0.000000	0.000000	1749719061.846491	0.000000
94.000000	2497.673332	-183.440767	-5863.287254	0.000000	0.000000	0.000000	0.000000	0.000000	-0.118000	-0.038000	1.004000	192.000000	0.000000	0.000000	0.000000	0.000000	0.000000	0.000000	0.000000	0.000000	0.000000	1749719061.850528	0.000000
95.000000	2545.953100	-188.536964	-5892.880963	0.000000	0.000000	0.000000	0.000000	0.000000	-0.118000	-0.038000	1.004000	192.000000	0.000000	0.000000	0.000000	0.000000	0.000000	0.000000	0.000000	0.000000	0.000000	1749719061.854690	0.000000
96.000000	2492.912411	-178.769252	-5848.378640	0.000000	0.000000	0.000000	0.000000	0.000000	-0.114000	-0.042000	1.006000	192.000000	252.000000	112.000000	254.000000	176.000000	31.000000	112.000000	0.000000	0.000000	0.000000	1749719061.857697	0.000000
97.000000	2415.731837	-168.912133	-5792.052244	0.000000	0.000000	0.000000	0.000000	0.000000	-0.114000	-0.042000	1.006000	192.000000	0.000000	0.000000	0.000000	0.000000	0.000000	0.000000	0.000000	0.000000	0.000000	1749719061.861587	0.000000
98.000000	2418.346991	-170.029720	-5802.468157	0.000000	0.000000	0.000000	0.000000	0.000000	-0.114000	-0.042000	1.006000	192.000000	0.000000	0.000000	0.000000	0.000000	0.000000	0.000000	0.000000	0.000000	0.000000	1749719061.865547	0.000000
99.000000	2499.483824	-183.105491	-5868.696376	0.000000	0.000000	0.000000	0.000000	0.000000	-0.114000	-0.042000	1.006000	192.000000	0.000000	0.000000	0.000000	0.000000	0.000000	0.000000	0.000000	0.000000	0.000000	1749719061.870588	0.000000
100.000000	2548.098868	-187.419377	-5896.323132	0.000000	0.000000	0.000000	0.000000	0.000000	-0.114000	-0.042000	1.006000	192.000000	0.000000	0.000000	0.000000	0.000000	0.000000	0.000000	0.000000	0.000000	0.000000	1749719061.874543	0.000000
101.000000	2494.812309	-175.707063	-5847.484570	0.000000	0.000000	0.000000	0.000000	0.000000	-0.114000	-0.042000	1.006000	192.000000	0.000000	0.000000	0.000000	0.000000	0.000000	0.000000	0.000000	0.000000	0.000000	1749719061.878579	0.000000
102.000000	2415.798892	-167.235752	-5789.325331	0.000000	0.000000	0.000000	0.000000	0.000000	-0.114000	-0.042000	1.006000	192.000000	0.000000	0.000000	0.000000	0.000000	0.000000	0.000000	0.000000	0.000000	0.000000	1749719061.882596	0.000000
103.000000	2419.084599	-171.795508	-5802.311695	0.000000	0.000000	0.000000	0.000000	0.000000	-0.114000	-0.042000	1.006000	192.000000	0.000000	0.000000	0.000000	0.000000	0.000000	0.000000	0.000000	0.000000	0.000000	1749719061.885605	0.000000
104.000000	2498.477995	-184.223078	-5869.031652	0.000000	0.000000	0.000000	0.000000	0.000000	-0.114000	-0.042000	1.006000	192.000000	0.000000	0.000000	0.000000	0.000000	0.000000	0.000000	0.000000	0.000000	0.000000	1749719061.889750	0.000000
105.000000	2545.483714	-187.285267	-5896.479594	0.000000	0.000000	0.000000	0.000000	0.000000	-0.114000	-0.042000	1.006000	192.000000	0.000000	0.000000	0.000000	0.000000	0.000000	0.000000	0.000000	0.000000	0.000000	1749719061.893761	0.000000
106.000000	2498.299181	-176.489374	-5848.021012	0.000000	0.000000	0.000000	0.000000	0.000000	-0.114000	-0.036000	1.004000	192.000000	252.000000	112.000000	254.000000	224.000000	31.000000	96.000000	0.000000	0.000000	0.000000	1749719061.897589	0.000000
107.000000	2416.491797	-164.598246	-5790.018235	0.000000	0.000000	0.000000	0.000000	0.000000	-0.114000	-0.036000	1.004000	192.000000	0.000000	0.000000	0.000000	0.000000	0.000000	0.000000	0.000000	0.000000	0.000000	1749719061.902629	0.000000
108.000000	2421.766808	-171.080252	-5803.451634	0.000000	0.000000	0.000000	0.000000	0.000000	-0.114000	-0.036000	1.004000	192.000000	0.000000	0.000000	0.000000	0.000000	0.000000	0.000000	0.000000	0.000000	0.000000	1749719061.906591	0.000000
109.000000	2506.636382	-184.871278	-5868.696376	0.000000	0.000000	0.000000	0.000000	0.000000	-0.114000	-0.036000	1.004000	192.000000	0.000000	0.000000	0.000000	0.000000	0.000000	0.000000	0.000000	0.000000	0.000000	1749719061.910619	0.000000
110.000000	2549.216455	-187.598191	-5895.250248	0.000000	0.000000	0.000000	0.000000	0.000000	-0.114000	-0.036000	1.004000	192.000000	0.000000	0.000000	0.000000	0.000000	0.000000	0.000000	0.000000	0.000000	0.000000	1749719061.913651	0.000000
111.000000	2497.829795	-174.835345	-5848.512751	0.000000	0.000000	0.000000	0.000000	0.000000	-0.114000	-0.036000	1.004000	192.000000	0.000000	0.000000	0.000000	0.000000	0.000000	0.000000	0.000000	0.000000	0.000000	1749719061.917648	0.000000
112.000000	2419.710448	-165.626426	-5794.399177	0.000000	0.000000	0.000000	0.000000	0.000000	-0.114000	-0.036000	1.004000	192.000000	0.000000	0.000000	0.000000	0.000000	0.000000	0.000000	0.000000	0.000000	0.000000	1749719061.921675	0.000000
113.000000	2422.459712	-172.913095	-5807.251430	0.000000	0.000000	0.000000	0.000000	0.000000	-0.114000	-0.036000	1.004000	192.000000	0.000000	0.000000	0.000000	0.000000	0.000000	0.000000	0.000000	0.000000	0.000000	1749719061.925822	0.000000
114.000000	2502.277792	-185.430072	-5867.578789	0.000000	0.000000	0.000000	0.000000	0.000000	-0.114000	-0.036000	1.004000	192.000000	0.000000	0.000000	0.000000	0.000000	0.000000	0.000000	0.000000	0.000000	0.000000	1749719061.929703	0.000000
115.000000	2551.116353	-185.273610	-5894.423234	0.000000	0.000000	0.000000	0.000000	0.000000	-0.114000	-0.036000	1.004000	192.000000	0.000000	0.000000	0.000000	0.000000	0.000000	0.000000	0.000000	0.000000	0.000000	1749719061.934648	0.000000
116.000000	2495.080530	-171.259066	-5845.450562	0.000000	0.000000	0.000000	0.000000	0.000000	-0.116000	-0.034000	1.006000	192.000000	252.000000	96.000000	254.000000	240.000000	31.000000	112.000000	0.000000	0.000000	0.000000	1749719061.938854	0.000000
117.000000	2413.340201	-163.860639	-5791.672265	0.000000	0.000000	0.000000	0.000000	0.000000	-0.116000	-0.034000	1.006000	192.000000	0.000000	0.000000	0.000000	0.000000	0.000000	0.000000	0.000000	0.000000	0.000000	1749719061.941678	0.000000
118.000000	2417.028238	-171.348473	-5805.351532	0.000000	0.000000	0.000000	0.000000	0.000000	-0.116000	-0.034000	1.006000	192.000000	0.000000	0.000000	0.000000	0.000000	0.000000	0.000000	0.000000	0.000000	0.000000	1749719061.945767	0.000000
119.000000	2497.919202	-188.134633	-5869.322225	0.000000	0.000000	0.000000	0.000000	0.000000	-0.116000	-0.034000	1.006000	192.000000	0.000000	0.000000	0.000000	0.000000	0.000000	0.000000	0.000000	0.000000	0.000000	1749719061.949748	0.000000
120.000000	2546.333080	-190.928601	-5896.032559	0.000000	0.000000	0.000000	0.000000	0.000000	-0.116000	-0.034000	1.006000	192.000000	0.000000	0.000000	0.000000	0.000000	0.000000	0.000000	0.000000	0.000000	0.000000	1749719061.953795	0.000000
121.000000	2496.712207	-179.015121	-5848.088068	0.000000	0.000000	0.000000	0.000000	0.000000	-0.116000	-0.034000	1.006000	192.000000	0.000000	0.000000	0.000000	0.000000	0.000000	0.000000	0.000000	0.000000	0.000000	1749719061.957777	0.000000
122.000000	2418.123474	-168.107470	-5792.633390	0.000000	0.000000	0.000000	0.000000	0.000000	-0.116000	-0.034000	1.006000	192.000000	0.000000	0.000000	0.000000	0.000000	0.000000	0.000000	0.000000	0.000000	0.000000	1749719061.962928	0.000000
123.000000	2418.570509	-174.365958	-5807.340837	0.000000	0.000000	0.000000	0.000000	0.000000	-0.116000	-0.034000	1.006000	192.000000	0.000000	0.000000	0.000000	0.000000	0.000000	0.000000	0.000000	0.000000	0.000000	1749719061.966824	0.000000
124.000000	2496.332228	-187.128805	-5870.216295	0.000000	0.000000	0.000000	0.000000	0.000000	-0.116000	-0.034000	1.006000	192.000000	0.000000	0.000000	0.000000	0.000000	0.000000	0.000000	0.000000	0.000000	0.000000	1749719061.969773	0.000000
125.000000	2548.188275	-189.073406	-5896.546650	0.000000	0.000000	0.000000	0.000000	0.000000	-0.118000	-0.034000	1.002000	192.000000	252.000000	80.000000	254.000000	240.000000	31.000000	80.000000	0.000000	0.000000	0.000000	1749719061.973803	0.000000
126.000000	2495.326399	-178.881011	-5849.272710	0.000000	0.000000	0.000000	0.000000	0.000000	-0.118000	-0.034000	1.002000	192.000000	0.000000	0.000000	0.000000	0.000000	0.000000	0.000000	0.000000	0.000000	0.000000	1749719061.977754	0.000000
127.000000	2417.519977	-169.739147	-5792.946314	0.000000	0.000000	0.000000	0.000000	0.000000	-0.118000	-0.034000	1.002000	192.000000	0.000000	0.000000	0.000000	0.000000	0.000000	0.000000	0.000000	0.000000	0.000000	1749719061.981762	0.000000
128.000000	2420.157483	-171.951970	-5805.507994	0.000000	0.000000	0.000000	0.000000	0.000000	-0.118000	-0.034000	1.002000	192.000000	0.000000	0.000000	0.000000	0.000000	0.000000	0.000000	0.000000	0.000000	0.000000	1749719061.985771	0.000000
129.000000	2497.271001	-186.659418	-5869.121059	0.000000	0.000000	0.000000	0.000000	0.000000	-0.118000	-0.034000	1.002000	192.000000	0.000000	0.000000	0.000000	0.000000	0.000000	0.000000	0.000000	0.000000	0.000000	1749719061.990793	0.000000
130.000000	2542.689746	-190.727435	-5895.160841	0.000000	0.000000	0.000000	0.000000	0.000000	-0.118000	-0.034000	1.002000	192.000000	0.000000	0.000000	0.000000	0.000000	0.000000	0.000000	0.000000	0.000000	0.000000	1749719061.994773	0.000000
131.000000	2490.163146	-176.489374	-5847.797495	0.000000	0.000000	0.000000	0.000000	0.000000	-0.118000	-0.034000	1.002000	192.000000	0.000000	0.000000	0.000000	0.000000	0.000000	0.000000	0.000000	0.000000	0.000000	1749719061.997773	0.000000
132.000000	2414.770712	-161.759575	-5793.035721	0.000000	0.000000	0.000000	0.000000	0.000000	-0.118000	-0.034000	1.002000	192.000000	0.000000	0.000000	0.000000	0.000000	0.000000	0.000000	0.000000	0.000000	0.000000	1749719062.001975	0.000000
133.000000	2419.039895	-168.442746	-5805.083311	0.000000	0.000000	0.000000	0.000000	0.000000	-0.118000	-0.034000	1.002000	192.000000	0.000000	0.000000	0.000000	0.000000	0.000000	0.000000	0.000000	0.000000	0.000000	1749719062.006067	0.000000
134.000000	2502.009571	-184.848927	-5869.881018	0.000000	0.000000	0.000000	0.000000	0.000000	-0.118000	-0.034000	1.002000	192.000000	0.000000	0.000000	0.000000	0.000000	0.000000	0.000000	0.000000	0.000000	0.000000	1749719062.009803	0.000000
135.000000	2547.674185	-188.626371	-5899.742949	0.000000	0.000000	0.000000	0.000000	0.000000	-0.114000	-0.036000	0.998000	192.000000	252.000000	112.000000	254.000000	224.000000	31.000000	48.000000	0.000000	0.000000	0.000000	1749719062.013843	0.000000
136.000000	2489.827870	-174.656531	-5851.172608	0.000000	0.000000	0.000000	0.000000	0.000000	-0.114000	-0.036000	0.998000	192.000000	0.000000	0.000000	0.000000	0.000000	0.000000	0.000000	0.000000	0.000000	0.000000	1749719062.017839	0.000000
137.000000	2414.726009	-165.849944	-5793.035721	0.000000	0.000000	0.000000	0.000000	0.000000	-0.114000	-0.036000	0.998000	192.000000	0.000000	0.000000	0.000000	0.000000	0.000000	0.000000	0.000000	0.000000	0.000000	1749719062.022840	0.000000
138.000000	2421.342125	-171.393176	-5803.876317	0.000000	0.000000	0.000000	0.000000	0.000000	-0.114000	-0.036000	0.998000	192.000000	0.000000	0.000000	0.000000	0.000000	0.000000	0.000000	0.000000	0.000000	0.000000	1749719062.025841	0.000000
139.000000	2500.713170	-183.038435	-5866.952940	0.000000	0.000000	0.000000	0.000000	0.000000	-0.114000	-0.036000	0.998000	192.000000	0.000000	0.000000	0.000000	0.000000	0.000000	0.000000	0.000000	0.000000	0.000000	1749719062.029903	0.000000
140.000000	2548.791772	-186.279438	-5893.305647	0.000000	0.000000	0.000000	0.000000	0.000000	-0.114000	-0.036000	0.998000	192.000000	0.000000	0.000000	0.000000	0.000000	0.000000	0.000000	0.000000	0.000000	0.000000	1749719062.034044	0.000000
141.000000	2493.873536	-175.103566	-5844.489437	0.000000	0.000000	0.000000	0.000000	0.000000	-0.114000	-0.036000	0.998000	192.000000	0.000000	0.000000	0.000000	0.000000	0.000000	0.000000	0.000000	0.000000	0.000000	1749719062.037910	0.000000
142.000000	2414.278974	-166.095813	-5789.615904	0.000000	0.000000	0.000000	0.000000	0.000000	-0.114000	-0.036000	0.998000	192.000000	0.000000	0.000000	0.000000	0.000000	0.000000	0.000000	0.000000	0.000000	0.000000	1749719062.041872	0.000000
143.000000	2418.794026	-171.169659	-5801.730550	0.000000	0.000000	0.000000	0.000000	0.000000	-0.114000	-0.036000	0.998000	192.000000	0.000000	0.000000	0.000000	0.000000	0.000000	0.000000	0.000000	0.000000	0.000000	1749719062.045893	0.000000
144.000000	2498.008609	-183.865450	-5865.142449	0.000000	0.000000	0.000000	0.000000	0.000000	-0.114000	-0.036000	0.998000	192.000000	0.000000	0.000000	0.000000	0.000000	0.000000	0.000000	0.000000	0.000000	0.000000	1749719062.050865	0.000000
145.000000	2550.803429	-186.122976	-5893.462109	0.000000	0.000000	0.000000	0.000000	0.000000	-0.118000	-0.030000	0.998000	192.000000	252.000000	80.000000	255.000000	16.000000	31.000000	48.000000	0.000000	0.000000	0.000000	1749719062.053896	0.000000
146.000000	2494.074702	-171.974322	-5845.785838	0.000000	0.000000	0.000000	0.000000	0.000000	-0.118000	-0.030000	0.998000	192.000000	0.000000	0.000000	0.000000	0.000000	0.000000	0.000000	0.000000	0.000000	0.000000	1749719062.057915	0.000000
147.000000	2409.272183	-161.960740	-5790.264105	0.000000	0.000000	0.000000	0.000000	0.000000	-0.118000	-0.030000	0.998000	192.000000	0.000000	0.000000	0.000000	0.000000	0.000000	0.000000	0.000000	0.000000	0.000000	1749719062.061898	0.000000
148.000000	2416.871776	-170.655569	-5803.250468	0.000000	0.000000	0.000000	0.000000	0.000000	-0.118000	-0.030000	0.998000	192.000000	0.000000	0.000000	0.000000	0.000000	0.000000	0.000000	0.000000	0.000000	0.000000	1749719062.066095	0.000000
149.000000	2499.237955	-184.223078	-5867.042347	0.000000	0.000000	0.000000	0.000000	0.000000	-0.118000	-0.030000	0.998000	192.000000	0.000000	0.000000	0.000000	0.000000	0.000000	0.000000	0.000000	0.000000	0.000000	1749719062.069954	0.000000
150.000000	2546.221321	-185.631238	-5894.199716	0.000000	0.000000	0.000000	0.000000	0.000000	-0.118000	-0.030000	0.998000	192.000000	0.000000	0.000000	0.000000	0.000000	0.000000	0.000000	0.000000	0.000000	0.000000	1749719062.073923	0.000000
151.000000	2492.241859	-171.974322	-5844.288271	0.000000	0.000000	0.000000	0.000000	0.000000	-0.118000	-0.030000	0.998000	192.000000	0.000000	0.000000	0.000000	0.000000	0.000000	0.000000	0.000000	0.000000	0.000000	1749719062.078926	0.000000
152.000000	2410.322715	-160.731394	-5790.040587	0.000000	0.000000	0.000000	0.000000	0.000000	-0.118000	-0.030000	0.998000	192.000000	0.000000	0.000000	0.000000	0.000000	0.000000	0.000000	0.000000	0.000000	0.000000	1749719062.081945	0.000000
153.000000	2414.256622	-167.012235	-5804.904497	0.000000	0.000000	0.000000	0.000000	0.000000	-0.118000	-0.030000	0.998000	192.000000	0.000000	0.000000	0.000000	0.000000	0.000000	0.000000	0.000000	0.000000	0.000000	1749719062.085944	0.000000
154.000000	2496.220469	-179.283342	-5866.058870	0.000000	0.000000	0.000000	0.000000	0.000000	-0.118000	-0.030000	0.998000	192.000000	0.000000	0.000000	0.000000	0.000000	0.000000	0.000000	0.000000	0.000000	0.000000	1749719062.089939	0.000000
155.000000	2541.594510	-183.574877	-5892.679798	0.000000	0.000000	0.000000	0.000000	0.000000	-0.114000	-0.034000	0.992000	192.000000	252.000000	112.000000	254.000000	240.000000	31.000000	0.000000	0.000000	0.000000	0.000000	1749719062.094000	0.000000
156.000000	2491.414844	-175.885877	-5846.970480	0.000000	0.000000	0.000000	0.000000	0.000000	-0.114000	-0.034000	0.992000	192.000000	0.000000	0.000000	0.000000	0.000000	0.000000	0.000000	0.000000	0.000000	0.000000	1749719062.098067	0.000000
157.000000	2411.842634	-164.441784	-5792.588686	0.000000	0.000000	0.000000	0.000000	0.000000	-0.114000	-0.034000	0.992000	192.000000	0.000000	0.000000	0.000000	0.000000	0.000000	0.000000	0.000000	0.000000	0.000000	1749719062.101987	0.000000
158.000000	2416.290631	-168.778022	-5805.239773	0.000000	0.000000	0.000000	0.000000	0.000000	-0.114000	-0.034000	0.992000	192.000000	0.000000	0.000000	0.000000	0.000000	0.000000	0.000000	0.000000	0.000000	0.000000	1749719062.106992	0.000000
159.000000	2504.781187	-184.983037	-5866.237684	0.000000	0.000000	0.000000	0.000000	0.000000	-0.114000	-0.034000	0.992000	192.000000	0.000000	0.000000	0.000000	0.000000	0.000000	0.000000	0.000000	0.000000	0.000000	1749719062.109989	0.000000
160.000000	2548.501199	-185.988866	-5890.668141	0.000000	0.000000	0.000000	0.000000	0.000000	-0.114000	-0.034000	0.992000	192.000000	0.000000	0.000000	0.000000	0.000000	0.000000	0.000000	0.000000	0.000000	0.000000	1749719062.112992	0.000000
161.000000	2491.459547	-172.153136	-5843.818884	0.000000	0.000000	0.000000	0.000000	0.000000	-0.114000	-0.034000	0.992000	192.000000	0.000000	0.000000	0.000000	0.000000	0.000000	0.000000	0.000000	0.000000	0.000000	1749719062.118030	0.000000
162.000000	2413.295497	-165.201743	-5790.152346	0.000000	0.000000	0.000000	0.000000	0.000000	-0.114000	-0.034000	0.992000	192.000000	0.000000	0.000000	0.000000	0.000000	0.000000	0.000000	0.000000	0.000000	0.000000	1749719062.122204	0.000000
163.000000	2416.827073	-173.404833	-5803.652800	0.000000	0.000000	0.000000	0.000000	0.000000	-0.114000	-0.034000	0.992000	192.000000	0.000000	0.000000	0.000000	0.000000	0.000000	0.000000	0.000000	0.000000	0.000000	1749719062.126196	0.000000
164.000000	2496.533393	-184.670113	-5865.701242	0.000000	0.000000	0.000000	0.000000	0.000000	-0.114000	-0.034000	0.992000	192.000000	0.000000	0.000000	0.000000	0.000000	0.000000	0.000000	0.000000	0.000000	0.000000	1749719062.130103	0.000000
165.000000	2539.538150	-183.060787	-5889.416443	0.000000	0.000000	0.000000	0.000000	0.000000	-0.108000	-0.028000	1.000000	192.000000	252.000000	160.000000	255.000000	32.000000	31.000000	64.000000	0.000000	0.000000	0.000000	1749719062.134126	0.000000
166.000000	2488.039731	-172.108432	-5844.042402	0.000000	0.000000	0.000000	0.000000	0.000000	-0.108000	-0.028000	1.000000	192.000000	0.000000	0.000000	0.000000	0.000000	0.000000	0.000000	0.000000	0.000000	0.000000	1749719062.138062	0.000000
167.000000	2415.485968	-166.095813	-5788.297151	0.000000	0.000000	0.000000	0.000000	0.000000	-0.108000	-0.028000	1.000000	192.000000	0.000000	0.000000	0.000000	0.000000	0.000000	0.000000	0.000000	0.000000	0.000000	1749719062.141107	0.000000
168.000000	2423.666707	-171.594342	-5800.836480	0.000000	0.000000	0.000000	0.000000	0.000000	-0.108000	-0.028000	1.000000	192.000000	0.000000	0.000000	0.000000	0.000000	0.000000	0.000000	0.000000	0.000000	0.000000	1749719062.146098	0.000000
169.000000	2499.506175	-182.971380	-5863.510771	0.000000	0.000000	0.000000	0.000000	0.000000	-0.108000	-0.028000	1.000000	192.000000	0.000000	0.000000	0.000000	0.000000	0.000000	0.000000	0.000000	0.000000	0.000000	1749719062.150105	0.000000
170.000000	2545.439010	-183.887802	-5892.121004	0.000000	0.000000	0.000000	0.000000	0.000000	-0.108000	-0.028000	1.000000	192.000000	0.000000	0.000000	0.000000	0.000000	0.000000	0.000000	0.000000	0.000000	0.000000	1749719062.154169	0.000000
171.000000	2494.342922	-171.124956	-5841.896634	0.000000	0.000000	0.000000	0.000000	0.000000	-0.108000	-0.028000	1.000000	192.000000	0.000000	0.000000	0.000000	0.000000	0.000000	0.000000	0.000000	0.000000	0.000000	1749719062.158306	0.000000
172.000000	2419.241061	-162.586589	-5786.196087	0.000000	0.000000	0.000000	0.000000	0.000000	-0.108000	-0.028000	1.000000	192.000000	0.000000	0.000000	0.000000	0.000000	0.000000	0.000000	0.000000	0.000000	0.000000	1749719062.162150	0.000000
173.000000	2423.197320	-166.878124	-5799.674189	0.000000	0.000000	0.000000	0.000000	0.000000	-0.108000	-0.028000	1.000000	192.000000	0.000000	0.000000	0.000000	0.000000	0.000000	0.000000	0.000000	0.000000	0.000000	1749719062.166158	0.000000
174.000000	2498.790920	-180.691502	-5864.404841	0.000000	0.000000	0.000000	0.000000	0.000000	-0.112000	-0.034000	1.002000	192.000000	252.000000	128.000000	254.000000	240.000000	31.000000	80.000000	0.000000	0.000000	0.000000	1749719062.169116	0.000000
175.000000	2541.594510	-182.703159	-5891.673969	0.000000	0.000000	0.000000	0.000000	0.000000	-0.112000	-0.034000	1.002000	192.000000	0.000000	0.000000	0.000000	0.000000	0.000000	0.000000	0.000000	0.000000	0.000000	1749719062.174129	0.000000
176.000000	2492.264210	-170.588514	-5841.270785	0.000000	0.000000	0.000000	0.000000	0.000000	-0.112000	-0.034000	1.002000	192.000000	0.000000	0.000000	0.000000	0.000000	0.000000	0.000000	0.000000	0.000000	0.000000	1749719062.178139	0.000000
177.000000	2416.581204	-161.245485	-5785.570238	0.000000	0.000000	0.000000	0.000000	0.000000	-0.112000	-0.034000	1.002000	192.000000	0.000000	0.000000	0.000000	0.000000	0.000000	0.000000	0.000000	0.000000	0.000000	1749719062.182138	0.000000
178.000000	2420.179834	-169.560333	-5800.724721	0.000000	0.000000	0.000000	0.000000	0.000000	-0.112000	-0.034000	1.002000	192.000000	0.000000	0.000000	0.000000	0.000000	0.000000	0.000000	0.000000	0.000000	0.000000	1749719062.186384	0.000000
179.000000	2496.198117	-181.742034	-5864.784821	0.000000	0.000000	0.000000	0.000000	0.000000	-0.112000	-0.034000	1.002000	192.000000	0.000000	0.000000	0.000000	0.000000	0.000000	0.000000	0.000000	0.000000	0.000000	1749719062.190168	0.000000
180.000000	2537.705307	-180.646799	-5889.707016	0.000000	0.000000	0.000000	0.000000	0.000000	-0.112000	-0.034000	1.002000	192.000000	0.000000	0.000000	0.000000	0.000000	0.000000	0.000000	0.000000	0.000000	0.000000	1749719062.194171	0.000000
181.000000	2485.536335	-172.354301	-5841.874283	0.000000	0.000000	0.000000	0.000000	0.000000	-0.112000	-0.034000	1.002000	192.000000	0.000000	0.000000	0.000000	0.000000	0.000000	0.000000	0.000000	0.000000	0.000000	1749719062.197165	0.000000
182.000000	2410.523881	-164.262970	-5785.614942	0.000000	0.000000	0.000000	0.000000	0.000000	-0.112000	-0.034000	1.002000	192.000000	0.000000	0.000000	0.000000	0.000000	0.000000	0.000000	0.000000	0.000000	0.000000	1749719062.202163	0.000000
183.000000	2421.655050	-170.409700	-5800.076520	0.000000	0.000000	0.000000	0.000000	0.000000	-0.112000	-0.034000	1.002000	192.000000	0.000000	0.000000	0.000000	0.000000	0.000000	0.000000	0.000000	0.000000	0.000000	1749719062.206224	0.000000
184.000000	2496.019303	-180.646799	-5866.416498	0.000000	0.000000	0.000000	0.000000	0.000000	-0.116000	-0.036000	1.010000	192.000000	252.000000	96.000000	254.000000	224.000000	31.000000	144.000000	0.000000	0.000000	0.000000	1749719062.210191	0.000000
185.000000	2539.336984	-183.753691	-5890.779899	0.000000	0.000000	0.000000	0.000000	0.000000	-0.116000	-0.036000	1.010000	192.000000	0.000000	0.000000	0.000000	0.000000	0.000000	0.000000	0.000000	0.000000	0.000000	1749719062.214351	0.000000
186.000000	2490.677236	-175.595304	-5842.611890	0.000000	0.000000	0.000000	0.000000	0.000000	-0.116000	-0.036000	1.010000	192.000000	0.000000	0.000000	0.000000	0.000000	0.000000	0.000000	0.000000	0.000000	0.000000	1749719062.218295	0.000000
187.000000	2411.619116	-166.006406	-5787.917171	0.000000	0.000000	0.000000	0.000000	0.000000	-0.116000	-0.036000	1.010000	192.000000	0.000000	0.000000	0.000000	0.000000	0.000000	0.000000	0.000000	0.000000	0.000000	1749719062.222262	0.000000
188.000000	2413.407256	-170.253238	-5803.988076	0.000000	0.000000	0.000000	0.000000	0.000000	-0.116000	-0.036000	1.010000	192.000000	0.000000	0.000000	0.000000	0.000000	0.000000	0.000000	0.000000	0.000000	0.000000	1749719062.225244	0.000000
189.000000	2497.606277	-181.920848	-5867.712899	0.000000	0.000000	0.000000	0.000000	0.000000	-0.116000	-0.036000	1.010000	192.000000	0.000000	0.000000	0.000000	0.000000	0.000000	0.000000	0.000000	0.000000	0.000000	1749719062.230233	0.000000
190.000000	2535.134856	-182.054959	-5891.718673	0.000000	0.000000	0.000000	0.000000	0.000000	-0.116000	-0.036000	1.010000	192.000000	0.000000	0.000000	0.000000	0.000000	0.000000	0.000000	0.000000	0.000000	0.000000	1749719062.234229	0.000000
191.000000	2482.585905	-170.968493	-5842.366021	0.000000	0.000000	0.000000	0.000000	0.000000	-0.116000	-0.036000	1.010000	192.000000	0.000000	0.000000	0.000000	0.000000	0.000000	0.000000	0.000000	0.000000	0.000000	1749719062.238225	0.000000
192.000000	2411.216785	-165.469964	-5788.900648	0.000000	0.000000	0.000000	0.000000	0.000000	-0.116000	-0.036000	1.010000	192.000000	0.000000	0.000000	0.000000	0.000000	0.000000	0.000000	0.000000	0.000000	0.000000	1749719062.242381	0.000000
193.000000	2411.149730	-172.823688	-5803.831614	0.000000	0.000000	0.000000	0.000000	0.000000	-0.116000	-0.036000	1.010000	192.000000	0.000000	0.000000	0.000000	0.000000	0.000000	0.000000	0.000000	0.000000	0.000000	1749719062.245288	0.000000
194.000000	2491.951286	-187.553488	-5868.763431	0.000000	0.000000	0.000000	0.000000	0.000000	-0.118000	-0.040000	1.008000	192.000000	252.000000	80.000000	254.000000	192.000000	31.000000	128.000000	0.000000	0.000000	0.000000	1749719062.249289	0.000000
195.000000	2537.302975	-186.458252	-5894.356179	0.000000	0.000000	0.000000	0.000000	0.000000	-0.118000	-0.040000	1.008000	192.000000	0.000000	0.000000	0.000000	0.000000	0.000000	0.000000	0.000000	0.000000	0.000000	1749719062.253301	0.000000
196.000000	2484.508155	-172.801336	-5845.741134	0.000000	0.000000	0.000000	0.000000	0.000000	-0.118000	-0.040000	1.008000	192.000000	0.000000	0.000000	0.000000	0.000000	0.000000	0.000000	0.000000	0.000000	0.000000	1749719062.257293	0.000000
197.000000	2408.802796	-164.151211	-5790.465270	0.000000	0.000000	0.000000	0.000000	0.000000	-0.118000	-0.040000	1.008000	192.000000	0.000000	0.000000	0.000000	0.000000	0.000000	0.000000	0.000000	0.000000	0.000000	1749719062.262277	0.000000
198.000000	2412.446131	-170.387348	-5802.714026	0.000000	0.000000	0.000000	0.000000	0.000000	-0.118000	-0.040000	1.008000	192.000000	0.000000	0.000000	0.000000	0.000000	0.000000	0.000000	0.000000	0.000000	0.000000	1749719062.266303	0.000000
199.000000	2496.779263	-185.787700	-5866.438850	0.000000	0.000000	0.000000	0.000000	0.000000	-0.118000	-0.040000	1.008000	192.000000	0.000000	0.000000	0.000000	0.000000	0.000000	0.000000	0.000000	0.000000	0.000000	1749719062.270497	0.000000
200.000000	2538.554673	-186.480604	-5891.562211	0.000000	0.000000	0.000000	0.000000	0.000000	-0.118000	-0.040000	1.008000	192.000000	0.000000	0.000000	0.000000	0.000000	0.000000	0.000000	0.000000	0.000000	0.000000	1749719062.274323	0.000000
201.000000	2481.155393	-171.706101	-5842.433076	0.000000	0.000000	0.000000	0.000000	0.000000	-0.118000	-0.040000	1.008000	192.000000	0.000000	0.000000	0.000000	0.000000	0.000000	0.000000	0.000000	0.000000	0.000000	1749719062.277320	0.000000
202.000000	2402.566660	-163.435955	-5786.307846	0.000000	0.000000	0.000000	0.000000	0.000000	-0.118000	-0.040000	1.008000	192.000000	0.000000	0.000000	0.000000	0.000000	0.000000	0.000000	0.000000	0.000000	0.000000	1749719062.281374	0.000000
203.000000	2406.098235	-170.923790	-5800.925887	0.000000	0.000000	0.000000	0.000000	0.000000	-0.118000	-0.040000	1.008000	192.000000	0.000000	0.000000	0.000000	0.000000	0.000000	0.000000	0.000000	0.000000	0.000000	1749719062.285368	0.000000
204.000000	2493.761777	-184.379540	-5865.231856	0.000000	0.000000	0.000000	0.000000	0.000000	-0.118000	-0.040000	1.012000	192.000000	252.000000	80.000000	254.000000	192.000000	31.000000	160.000000	0.000000	0.000000	0.000000	1749719062.290367	0.000000
205.000000	2535.112504	-184.692464	-5888.701187	0.000000	0.000000	0.000000	0.000000	0.000000	-0.118000	-0.040000	1.012000	192.000000	0.000000	0.000000	0.000000	0.000000	0.000000	0.000000	0.000000	0.000000	0.000000	1749719062.294363	0.000000
206.000000	2479.657826	-175.081214	-5841.851931	0.000000	0.000000	0.000000	0.000000	0.000000	-0.118000	-0.040000	1.012000	192.000000	0.000000	0.000000	0.000000	0.000000	0.000000	0.000000	0.000000	0.000000	0.000000	1749719062.298501	0.000000
207.000000	2402.209032	-167.772194	-5789.906477	0.000000	0.000000	0.000000	0.000000	0.000000	-0.118000	-0.040000	1.012000	192.000000	0.000000	0.000000	0.000000	0.000000	0.000000	0.000000	0.000000	0.000000	0.000000	1749719062.301417	0.000000
208.000000	2407.707561	-174.365958	-5805.753864	0.000000	0.000000	0.000000	0.000000	0.000000	-0.118000	-0.040000	1.012000	192.000000	0.000000	0.000000	0.000000	0.000000	0.000000	0.000000	0.000000	0.000000	0.000000	1749719062.305378	0.000000
209.000000	2490.431367	-183.530174	-5868.294045	0.000000	0.000000	0.000000	0.000000	0.000000	-0.118000	-0.040000	1.012000	192.000000	0.000000	0.000000	0.000000	0.000000	0.000000	0.000000	0.000000	0.000000	0.000000	1749719062.309405	0.000000
210.000000	2533.346717	-183.999560	-5892.188059	0.000000	0.000000	0.000000	0.000000	0.000000	-0.118000	-0.040000	1.012000	192.000000	0.000000	0.000000	0.000000	0.000000	0.000000	0.000000	0.000000	0.000000	0.000000	1749719062.313403	0.000000
211.000000	2476.439175	-174.097738	-5840.600233	0.000000	0.000000	0.000000	0.000000	0.000000	-0.118000	-0.040000	1.012000	192.000000	0.000000	0.000000	0.000000	0.000000	0.000000	0.000000	0.000000	0.000000	0.000000	1749719062.318402	0.000000
212.000000	2398.431587	-163.815935	-5786.486660	0.000000	0.000000	0.000000	0.000000	0.000000	-0.118000	-0.040000	1.012000	192.000000	0.000000	0.000000	0.000000	0.000000	0.000000	0.000000	0.000000	0.000000	0.000000	1749719062.322429	0.000000
213.000000	2411.954392	-170.476755	-5802.602268	0.000000	0.000000	0.000000	0.000000	0.000000	-0.118000	-0.040000	1.012000	192.000000	0.000000	0.000000	0.000000	0.000000	0.000000	0.000000	0.000000	0.000000	0.000000	1749719062.326467	0.000000
214.000000	2496.823966	-183.731339	-5866.237684	0.000000	0.000000	0.000000	0.000000	0.000000	-0.116000	-0.034000	1.012000	192.000000	252.000000	96.000000	254.000000	240.000000	31.000000	160.000000	0.000000	0.000000	0.000000	1749719062.330592	0.000000
215.000000	2538.465266	-186.994694	-5892.389225	0.000000	0.000000	0.000000	0.000000	0.000000	-0.116000	-0.034000	1.012000	192.000000	0.000000	0.000000	0.000000	0.000000	0.000000	0.000000	0.000000	0.000000	0.000000	1749719062.333663	0.000000
216.000000	2484.530507	-175.058863	-5844.802361	0.000000	0.000000	0.000000	0.000000	0.000000	-0.116000	-0.034000	1.012000	192.000000	0.000000	0.000000	0.000000	0.000000	0.000000	0.000000	0.000000	0.000000	0.000000	1749719062.337659	0.000000
217.000000	2402.320791	-168.062767	-5789.571201	0.000000	0.000000	0.000000	0.000000	0.000000	-0.116000	-0.034000	1.012000	192.000000	0.000000	0.000000	0.000000	0.000000	0.000000	0.000000	0.000000	0.000000	0.000000	1749719062.341473	0.000000
218.000000	2413.206090	-175.058863	-5806.580878	0.000000	0.000000	0.000000	0.000000	0.000000	-0.116000	-0.034000	1.012000	192.000000	0.000000	0.000000	0.000000	0.000000	0.000000	0.000000	0.000000	0.000000	0.000000	1749719062.345499	0.000000
219.000000	2494.857013	-184.379540	-5869.143411	0.000000	0.000000	0.000000	0.000000	0.000000	-0.116000	-0.034000	1.012000	192.000000	0.000000	0.000000	0.000000	0.000000	0.000000	0.000000	0.000000	0.000000	0.000000	1749719062.350572	0.000000
220.000000	2536.543016	-184.379540	-5892.746853	0.000000	0.000000	0.000000	0.000000	0.000000	-0.116000	-0.034000	1.012000	192.000000	0.000000	0.000000	0.000000	0.000000	0.000000	0.000000	0.000000	0.000000	0.000000	1749719062.354582	0.000000
221.000000	2478.875515	-172.153136	-5844.645899	0.000000	0.000000	0.000000	0.000000	0.000000	-0.116000	-0.034000	1.012000	192.000000	0.000000	0.000000	0.000000	0.000000	0.000000	0.000000	0.000000	0.000000	0.000000	1749719062.357500	0.000000
222.000000	2395.749378	-167.146345	-5791.247581	0.000000	0.000000	0.000000	0.000000	0.000000	-0.116000	-0.034000	1.012000	192.000000	0.000000	0.000000	0.000000	0.000000	0.000000	0.000000	0.000000	0.000000	0.000000	1749719062.361698	0.000000
223.000000	2410.210956	-177.405796	-5806.513823	0.000000	0.000000	0.000000	0.000000	0.000000	-0.116000	-0.034000	1.012000	192.000000	0.000000	0.000000	0.000000	0.000000	0.000000	0.000000	0.000000	0.000000	0.000000	1749719062.365521	0.000000
224.000000	2495.572268	-183.686636	-5869.679853	0.000000	0.000000	0.000000	0.000000	0.000000	-0.114000	-0.036000	1.012000	192.000000	252.000000	112.000000	254.000000	224.000000	31.000000	160.000000	0.000000	0.000000	0.000000	1749719062.369542	0.000000
225.000000	2535.447781	-184.893630	-5893.193888	0.000000	0.000000	0.000000	0.000000	0.000000	-0.114000	-0.036000	1.012000	192.000000	0.000000	0.000000	0.000000	0.000000	0.000000	0.000000	0.000000	0.000000	0.000000	1749719062.373600	0.000000
226.000000	2484.195231	-173.091909	-5845.629376	0.000000	0.000000	0.000000	0.000000	0.000000	-0.114000	-0.036000	1.012000	192.000000	0.000000	0.000000	0.000000	0.000000	0.000000	0.000000	0.000000	0.000000	0.000000	1749719062.378598	0.000000
227.000000	2412.110855	-164.374729	-5792.253410	0.000000	0.000000	0.000000	0.000000	0.000000	-0.114000	-0.036000	1.012000	192.000000	0.000000	0.000000	0.000000	0.000000	0.000000	0.000000	0.000000	0.000000	0.000000	1749719062.382604	0.000000
228.000000	2412.468483	-171.817860	-5807.117320	0.000000	0.000000	0.000000	0.000000	0.000000	-0.114000	-0.036000	1.012000	192.000000	0.000000	0.000000	0.000000	0.000000	0.000000	0.000000	0.000000	0.000000	0.000000	1749719062.385566	0.000000
229.000000	2490.230202	-184.334837	-5870.953902	0.000000	0.000000	0.000000	0.000000	0.000000	-0.114000	-0.036000	1.012000	192.000000	0.000000	0.000000	0.000000	0.000000	0.000000	0.000000	0.000000	0.000000	0.000000	1749719062.389548	0.000000
230.000000	2535.179560	-184.491299	-5894.356179	0.000000	0.000000	0.000000	0.000000	0.000000	-0.114000	-0.036000	1.012000	192.000000	0.000000	0.000000	0.000000	0.000000	0.000000	0.000000	0.000000	0.000000	0.000000	1749719062.393725	0.000000
231.000000	2480.216620	-172.913095	-5846.009355	0.000000	0.000000	0.000000	0.000000	0.000000	-0.114000	-0.036000	1.012000	192.000000	0.000000	0.000000	0.000000	0.000000	0.000000	0.000000	0.000000	0.000000	0.000000	1749719062.397774	0.000000
232.000000	2404.734779	-160.373766	-5789.593552	0.000000	0.000000	0.000000	0.000000	0.000000	-0.114000	-0.036000	1.012000	192.000000	0.000000	0.000000	0.000000	0.000000	0.000000	0.000000	0.000000	0.000000	0.000000	1749719062.401592	0.000000
233.000000	2410.367419	-166.386386	-5804.680980	0.000000	0.000000	0.000000	0.000000	0.000000	-0.114000	-0.036000	1.016000	192.000000	252.000000	112.000000	254.000000	224.000000	31.000000	192.000000	0.000000	0.000000	0.000000	1749719062.406587	0.000000
234.000000	2497.092187	-180.691502	-5869.724556	0.000000	0.000000	0.000000	0.000000	0.000000	-0.114000	-0.036000	1.016000	192.000000	0.000000	0.000000	0.000000	0.000000	0.000000	0.000000	0.000000	0.000000	0.000000	1749719062.410620	0.000000
235.000000	2542.846208	-182.949028	-5895.272600	0.000000	0.000000	0.000000	0.000000	0.000000	-0.114000	-0.036000	1.016000	192.000000	0.000000	0.000000	0.000000	0.000000	0.000000	0.000000	0.000000	0.000000	0.000000	1749719062.413585	0.000000
236.000000	2485.245762	-168.956836	-5847.909254	0.000000	0.000000	0.000000	0.000000	0.000000	-0.114000	-0.036000	1.016000	192.000000	0.000000	0.000000	0.000000	0.000000	0.000000	0.000000	0.000000	0.000000	0.000000	1749719062.417592	0.000000
237.000000	2407.014657	-160.798450	-5792.767500	0.000000	0.000000	0.000000	0.000000	0.000000	-0.114000	-0.036000	1.016000	192.000000	0.000000	0.000000	0.000000	0.000000	0.000000	0.000000	0.000000	0.000000	0.000000	1749719062.421636	0.000000
238.000000	2415.061285	-165.268799	-5805.262125	0.000000	0.000000	0.000000	0.000000	0.000000	-0.114000	-0.036000	1.016000	192.000000	0.000000	0.000000	0.000000	0.000000	0.000000	0.000000	0.000000	0.000000	0.000000	1749719062.425828	0.000000
239.000000	2499.796748	-178.903363	-5870.819792	0.000000	0.000000	0.000000	0.000000	0.000000	-0.114000	-0.036000	1.016000	192.000000	0.000000	0.000000	0.000000	0.000000	0.000000	0.000000	0.000000	0.000000	0.000000	1749719062.429636	0.000000
240.000000	2542.153304	-182.077310	-5898.603010	0.000000	0.000000	0.000000	0.000000	0.000000	-0.114000	-0.036000	1.016000	192.000000	0.000000	0.000000	0.000000	0.000000	0.000000	0.000000	0.000000	0.000000	0.000000	1749719062.433667	0.000000
241.000000	2483.502326	-173.248371	-5851.262015	0.000000	0.000000	0.000000	0.000000	0.000000	-0.114000	-0.036000	1.016000	192.000000	0.000000	0.000000	0.000000	0.000000	0.000000	0.000000	0.000000	0.000000	0.000000	1749719062.438695	0.000000
242.000000	2403.125453	-163.994749	-5797.014331	0.000000	0.000000	0.000000	0.000000	0.000000	-0.114000	-0.036000	1.016000	192.000000	0.000000	0.000000	0.000000	0.000000	0.000000	0.000000	0.000000	0.000000	0.000000	1749719062.441628	0.000000
243.000000	2411.082674	-167.213400	-5808.056093	0.000000	0.000000	0.000000	0.000000	0.000000	-0.118000	-0.032000	1.004000	192.000000	252.000000	80.000000	255.000000	0.000000	31.000000	96.000000	0.000000	0.000000	0.000000	1749719062.445692	0.000000
244.000000	2504.915298	-180.915020	-5871.780917	0.000000	0.000000	0.000000	0.000000	0.000000	-0.118000	-0.032000	1.004000	192.000000	0.000000	0.000000	0.000000	0.000000	0.000000	0.000000	0.000000	0.000000	0.000000	1749719062.449749	0.000000
245.000000	2545.036679	-182.703159	-5897.261905	0.000000	0.000000	0.000000	0.000000	0.000000	-0.118000	-0.032000	1.004000	192.000000	0.000000	0.000000	0.000000	0.000000	0.000000	0.000000	0.000000	0.000000	0.000000	1749719062.453782	0.000000
246.000000	2488.375007	-171.907267	-5847.506922	0.000000	0.000000	0.000000	0.000000	0.000000	-0.118000	-0.032000	1.004000	192.000000	0.000000	0.000000	0.000000	0.000000	0.000000	0.000000	0.000000	0.000000	0.000000	1749719062.458016	0.000000
247.000000	2413.384904	-165.380557	-5791.627561	0.000000	0.000000	0.000000	0.000000	0.000000	-0.118000	-0.032000	1.004000	192.000000	0.000000	0.000000	0.000000	0.000000	0.000000	0.000000	0.000000	0.000000	0.000000	1749719062.461801	0.000000
248.000000	2419.285765	-168.822726	-5808.190204	0.000000	0.000000	0.000000	0.000000	0.000000	-0.118000	-0.032000	1.004000	192.000000	0.000000	0.000000	0.000000	0.000000	0.000000	0.000000	0.000000	0.000000	0.000000	1749719062.466776	0.000000
249.000000	2498.925030	-179.596267	-5873.144373	0.000000	0.000000	0.000000	0.000000	0.000000	-0.118000	-0.032000	1.004000	192.000000	0.000000	0.000000	0.000000	0.000000	0.000000	0.000000	0.000000	0.000000	0.000000	1749719062.469744	0.000000
250.000000	2539.135818	-182.859621	-5895.987856	0.000000	0.000000	0.000000	0.000000	0.000000	-0.118000	-0.032000	1.004000	192.000000	0.000000	0.000000	0.000000	0.000000	0.000000	0.000000	0.000000	0.000000	0.000000	1749719062.472742	0.000000
251.000000	2488.330303	-172.108432	-5845.182341	0.000000	0.000000	0.000000	0.000000	0.000000	-0.118000	-0.032000	1.004000	192.000000	0.000000	0.000000	0.000000	0.000000	0.000000	0.000000	0.000000	0.000000	0.000000	1749719062.477743	0.000000
252.000000	2410.926212	-162.251313	-5789.951180	0.000000	0.000000	0.000000	0.000000	0.000000	-0.118000	-0.032000	1.004000	192.000000	0.000000	0.000000	0.000000	0.000000	0.000000	0.000000	0.000000	0.000000	0.000000	1749719062.481813	0.000000
253.000000	2412.624945	-169.448575	-5805.440939	0.000000	0.000000	0.000000	0.000000	0.000000	-0.120000	-0.038000	1.006000	192.000000	252.000000	64.000000	254.000000	208.000000	31.000000	112.000000	0.000000	0.000000	0.000000	1749719062.485879	0.000000
254.000000	2497.650981	-180.982075	-5871.222123	0.000000	0.000000	0.000000	0.000000	0.000000	-0.120000	-0.038000	1.006000	192.000000	0.000000	0.000000	0.000000	0.000000	0.000000	0.000000	0.000000	0.000000	0.000000	1749719062.489828	0.000000
255.000000	2544.120257	-183.887802	-5895.831394	0.000000	0.000000	0.000000	0.000000	0.000000	-0.120000	-0.038000	1.006000	192.000000	0.000000	0.000000	0.000000	0.000000	0.000000	0.000000	0.000000	0.000000	0.000000	1749719062.493798	0.000000
0.000000	2488.978504	-173.963627	-5846.679908	0.000000	0.000000	0.000000	0.000000	0.000000	-0.120000	-0.038000	1.006000	192.000000	0.000000	0.000000	0.000000	0.000000	0.000000	0.000000	0.000000	0.000000	0.000000	1749719062.497803	0.000000
1.000000	2411.663820	-161.334891	-5792.365169	0.000000	0.000000	0.000000	0.000000	0.000000	-0.120000	-0.038000	1.006000	192.000000	0.000000	0.000000	0.000000	0.000000	0.000000	0.000000	0.000000	0.000000	0.000000	1749719062.500758	0.000000
2.000000	2420.626869	-167.772194	-5808.950163	0.000000	0.000000	0.000000	0.000000	0.000000	-0.120000	-0.038000	1.006000	192.000000	0.000000	0.000000	0.000000	0.000000	0.000000	0.000000	0.000000	0.000000	0.000000	1749719062.505842	0.000000
3.000000	2500.221431	-178.433976	-5871.244475	0.000000	0.000000	0.000000	0.000000	0.000000	-0.120000	-0.038000	1.006000	192.000000	0.000000	0.000000	0.000000	0.000000	0.000000	0.000000	0.000000	0.000000	0.000000	1749719062.509822	0.000000
4.000000	2536.319499	-178.121052	-5893.059777	0.000000	0.000000	0.000000	0.000000	0.000000	-0.120000	-0.038000	1.006000	192.000000	0.000000	0.000000	0.000000	0.000000	0.000000	0.000000	0.000000	0.000000	0.000000	1749719062.513966	0.000000
5.000000	2486.542164	-166.498144	-5843.595367	0.000000	0.000000	0.000000	0.000000	0.000000	-0.120000	-0.038000	1.006000	192.000000	0.000000	0.000000	0.000000	0.000000	0.000000	0.000000	0.000000	0.000000	0.000000	1749719062.517906	0.000000
6.000000	2413.966049	-158.071537	-5789.861773	0.000000	0.000000	0.000000	0.000000	0.000000	-0.120000	-0.038000	1.006000	192.000000	0.000000	0.000000	0.000000	0.000000	0.000000	0.000000	0.000000	0.000000	0.000000	1749719062.521877	0.000000
7.000000	2422.124436	-165.201743	-5806.692637	0.000000	0.000000	0.000000	0.000000	0.000000	-0.114000	-0.038000	1.004000	192.000000	252.000000	112.000000	254.000000	208.000000	31.000000	96.000000	0.000000	0.000000	0.000000	1749719062.525813	0.000000
8.000000	2508.424521	-176.511726	-5871.713861	0.000000	0.000000	0.000000	0.000000	0.000000	-0.114000	-0.038000	1.004000	192.000000	0.000000	0.000000	0.000000	0.000000	0.000000	0.000000	0.000000	0.000000	0.000000	1749719062.528801	0.000000
9.000000	2547.540074	-176.712892	-5895.183193	0.000000	0.000000	0.000000	0.000000	0.000000	-0.114000	-0.038000	1.004000	192.000000	0.000000	0.000000	0.000000	0.000000	0.000000	0.000000	0.000000	0.000000	0.000000	1749719062.533822	0.000000
10.000000	2489.000856	-165.157040	-5844.735306	0.000000	0.000000	0.000000	0.000000	0.000000	-0.114000	-0.038000	1.004000	192.000000	0.000000	0.000000	0.000000	0.000000	0.000000	0.000000	0.000000	0.000000	0.000000	1749719062.537846	0.000000
11.000000	2413.630773	-158.317406	-5791.538154	0.000000	0.000000	0.000000	0.000000	0.000000	-0.114000	-0.038000	1.004000	192.000000	0.000000	0.000000	0.000000	0.000000	0.000000	0.000000	0.000000	0.000000	0.000000	1749719062.541867	0.000000
12.000000	2421.342125	-166.945179	-5809.196032	0.000000	0.000000	0.000000	0.000000	0.000000	-0.114000	-0.038000	1.004000	192.000000	0.000000	0.000000	0.000000	0.000000	0.000000	0.000000	0.000000	0.000000	0.000000	1749719062.546002	0.000000
13.000000	2501.227260	-182.434938	-5873.502001	0.000000	0.000000	0.000000	0.000000	0.000000	-0.114000	-0.038000	1.004000	192.000000	0.000000	0.000000	0.000000	0.000000	0.000000	0.000000	0.000000	0.000000	0.000000	1749719062.550092	0.000000
14.000000	2539.627557	-182.971380	-5893.551516	0.000000	0.000000	0.000000	0.000000	0.000000	-0.114000	-0.038000	1.004000	192.000000	0.000000	0.000000	0.000000	0.000000	0.000000	0.000000	0.000000	0.000000	0.000000	1749719062.554014	0.000000
15.000000	2487.659751	-171.057900	-5844.422381	0.000000	0.000000	0.000000	0.000000	0.000000	-0.114000	-0.038000	1.004000	192.000000	0.000000	0.000000	0.000000	0.000000	0.000000	0.000000	0.000000	0.000000	0.000000	1749719062.556972	0.000000
16.000000	2417.296459	-162.541886	-5792.700445	0.000000	0.000000	0.000000	0.000000	0.000000	-0.114000	-0.038000	1.004000	192.000000	0.000000	0.000000	0.000000	0.000000	0.000000	0.000000	0.000000	0.000000	0.000000	1749719062.562002	0.000000
17.000000	2423.554948	-168.174525	-5809.017218	0.000000	0.000000	0.000000	0.000000	0.000000	-0.120000	-0.034000	1.004000	192.000000	252.000000	64.000000	254.000000	240.000000	31.000000	96.000000	0.000000	0.000000	0.000000	1749719062.565986	0.000000
18.000000	2505.876423	-179.752729	-5871.847972	0.000000	0.000000	0.000000	0.000000	0.000000	-0.120000	-0.034000	1.004000	192.000000	0.000000	0.000000	0.000000	0.000000	0.000000	0.000000	0.000000	0.000000	0.000000	1749719062.570048	0.000000
19.000000	2548.814124	-181.786738	-5893.037426	0.000000	0.000000	0.000000	0.000000	0.000000	-0.120000	-0.034000	1.004000	192.000000	0.000000	0.000000	0.000000	0.000000	0.000000	0.000000	0.000000	0.000000	0.000000	1749719062.574107	0.000000
20.000000	2489.380835	-168.800374	-5841.337841	0.000000	0.000000	0.000000	0.000000	0.000000	-0.120000	-0.034000	1.004000	192.000000	0.000000	0.000000	0.000000	0.000000	0.000000	0.000000	0.000000	0.000000	0.000000	1749719062.579219	0.000000
21.000000	2407.908727	-159.524400	-5791.046416	0.000000	0.000000	0.000000	0.000000	0.000000	-0.120000	-0.034000	1.004000	192.000000	0.000000	0.000000	0.000000	0.000000	0.000000	0.000000	0.000000	0.000000	0.000000	1749719062.582097	0.000000
22.000000	2422.504416	-167.369862	-5808.860756	0.000000	0.000000	0.000000	0.000000	0.000000	-0.120000	-0.034000	1.004000	192.000000	0.000000	0.000000	0.000000	0.000000	0.000000	0.000000	0.000000	0.000000	0.000000	1749719062.584975	0.000000
23.000000	2504.825891	-179.328046	-5874.351367	0.000000	0.000000	0.000000	0.000000	0.000000	-0.120000	-0.034000	1.004000	192.000000	0.000000	0.000000	0.000000	0.000000	0.000000	0.000000	0.000000	0.000000	0.000000	1749719062.589963	0.000000
24.000000	2546.064859	-180.266819	-5901.285219	0.000000	0.000000	0.000000	0.000000	0.000000	-0.120000	-0.034000	1.004000	192.000000	0.000000	0.000000	0.000000	0.000000	0.000000	0.000000	0.000000	0.000000	0.000000	1749719062.594059	0.000000
25.000000	2497.539222	-172.220191	-5855.866475	0.000000	0.000000	0.000000	0.000000	0.000000	-0.120000	-0.034000	1.004000	192.000000	0.000000	0.000000	0.000000	0.000000	0.000000	0.000000	0.000000	0.000000	0.000000	1749719062.598063	0.000000
26.000000	2423.845520	-168.286284	-5803.138709	0.000000	0.000000	0.000000	0.000000	0.000000	-0.120000	-0.034000	1.004000	192.000000	0.000000	0.000000	0.000000	0.000000	0.000000	0.000000	0.000000	0.000000	0.000000	1749719062.602059	0.000000
27.000000	2432.763867	-176.690540	-5815.767445	0.000000	0.000000	0.000000	0.000000	0.000000	-0.114000	-0.030000	1.004000	192.000000	252.000000	112.000000	255.000000	16.000000	31.000000	96.000000	0.000000	0.000000	0.000000	1749719062.606248	0.000000
28.000000	2514.951231	-190.369808	-5876.698300	0.000000	0.000000	0.000000	0.000000	0.000000	-0.114000	-0.030000	1.004000	192.000000	0.000000	0.000000	0.000000	0.000000	0.000000	0.000000	0.000000	0.000000	0.000000	1749719062.610073	0.000000
29.000000	2553.865618	-190.861546	-5896.814870	0.000000	0.000000	0.000000	0.000000	0.000000	-0.114000	-0.030000	1.004000	192.000000	0.000000	0.000000	0.000000	0.000000	0.000000	0.000000	0.000000	0.000000	0.000000	1749719062.613114	0.000000
30.000000	2491.191327	-175.952932	-5845.383506	0.000000	0.000000	0.000000	0.000000	0.000000	-0.114000	-0.030000	1.004000	192.000000	0.000000	0.000000	0.000000	0.000000	0.000000	0.000000	0.000000	0.000000	0.000000	1749719062.617009	0.000000
31.000000	2412.066151	-165.984054	-5791.247581	0.000000	0.000000	0.000000	0.000000	0.000000	-0.114000	-0.030000	1.004000	192.000000	0.000000	0.000000	0.000000	0.000000	0.000000	0.000000	0.000000	0.000000	0.000000	1749719062.622118	0.000000
32.000000	2426.863006	-172.153136	-5808.123148	0.000000	0.000000	0.000000	0.000000	0.000000	-0.114000	-0.030000	1.004000	192.000000	0.000000	0.000000	0.000000	0.000000	0.000000	0.000000	0.000000	0.000000	0.000000	1749719062.626165	0.000000
33.000000	2507.329286	-183.194898	-5871.467992	0.000000	0.000000	0.000000	0.000000	0.000000	-0.114000	-0.030000	1.004000	192.000000	0.000000	0.000000	0.000000	0.000000	0.000000	0.000000	0.000000	0.000000	0.000000	1749719062.630103	0.000000
34.000000	2547.294205	-184.491299	-5892.277466	0.000000	0.000000	0.000000	0.000000	0.000000	-0.114000	-0.030000	1.004000	192.000000	0.000000	0.000000	0.000000	0.000000	0.000000	0.000000	0.000000	0.000000	0.000000	1749719062.634196	0.000000
35.000000	2487.950324	-172.980150	-5842.455428	0.000000	0.000000	0.000000	0.000000	0.000000	-0.114000	-0.030000	1.004000	192.000000	0.000000	0.000000	0.000000	0.000000	0.000000	0.000000	0.000000	0.000000	0.000000	1749719062.638327	0.000000
36.000000	2414.033105	-161.692519	-5790.420567	0.000000	0.000000	0.000000	0.000000	0.000000	-0.110000	-0.034000	1.004000	192.000000	252.000000	144.000000	254.000000	240.000000	31.000000	96.000000	0.000000	0.000000	0.000000	1749719062.641132	0.000000
37.000000	2420.112779	-167.638083	-5805.597401	0.000000	0.000000	0.000000	0.000000	0.000000	-0.110000	-0.034000	1.004000	192.000000	0.000000	0.000000	0.000000	0.000000	0.000000	0.000000	0.000000	0.000000	0.000000	1749719062.645143	0.000000
38.000000	2506.122292	-178.612790	-5869.612797	0.000000	0.000000	0.000000	0.000000	0.000000	-0.110000	-0.034000	1.004000	192.000000	0.000000	0.000000	0.000000	0.000000	0.000000	0.000000	0.000000	0.000000	0.000000	1749719062.650146	0.000000
39.000000	2549.574083	-180.244467	-5896.636056	0.000000	0.000000	0.000000	0.000000	0.000000	-0.110000	-0.034000	1.004000	192.000000	0.000000	0.000000	0.000000	0.000000	0.000000	0.000000	0.000000	0.000000	0.000000	1749719062.654142	0.000000
40.000000	2487.972675	-171.571990	-5844.847065	0.000000	0.000000	0.000000	0.000000	0.000000	-0.110000	-0.034000	1.004000	192.000000	0.000000	0.000000	0.000000	0.000000	0.000000	0.000000	0.000000	0.000000	0.000000	1749719062.658156	0.000000
41.000000	2399.817395	-170.901438	-5787.760709	0.000000	0.000000	0.000000	0.000000	0.000000	-0.110000	-0.034000	1.004000	192.000000	0.000000	0.000000	0.000000	0.000000	0.000000	0.000000	0.000000	0.000000	0.000000	1749719062.662175	0.000000
42.000000	2418.995192	-177.070520	-5806.580878	0.000000	0.000000	0.000000	0.000000	0.000000	-0.110000	-0.034000	1.004000	192.000000	0.000000	0.000000	0.000000	0.000000	0.000000	0.000000	0.000000	0.000000	0.000000	1749719062.665310	0.000000
43.000000	2514.258327	-179.663322	-5872.138545	0.000000	0.000000	0.000000	0.000000	0.000000	-0.110000	-0.034000	1.004000	192.000000	0.000000	0.000000	0.000000	0.000000	0.000000	0.000000	0.000000	0.000000	0.000000	1749719062.669201	0.000000
44.000000	2555.430240	-179.037473	-5894.110309	0.000000	0.000000	0.000000	0.000000	0.000000	-0.110000	-0.034000	1.004000	192.000000	0.000000	0.000000	0.000000	0.000000	0.000000	0.000000	0.000000	0.000000	0.000000	1749719062.673216	0.000000
45.000000	2489.514946	-169.895610	-5842.209559	0.000000	0.000000	0.000000	0.000000	0.000000	-0.110000	-0.034000	1.004000	192.000000	0.000000	0.000000	0.000000	0.000000	0.000000	0.000000	0.000000	0.000000	0.000000	1749719062.678188	0.000000
46.000000	2404.198337	-164.374729	-5789.079462	0.000000	0.000000	0.000000	0.000000	0.000000	-0.110000	-0.038000	1.004000	192.000000	252.000000	144.000000	254.000000	208.000000	31.000000	96.000000	0.000000	0.000000	0.000000	1749719062.682212	0.000000
47.000000	2416.201224	-169.023892	-5807.810224	0.000000	0.000000	0.000000	0.000000	0.000000	-0.110000	-0.038000	1.004000	192.000000	0.000000	0.000000	0.000000	0.000000	0.000000	0.000000	0.000000	0.000000	0.000000	1749719062.686248	0.000000
48.000000	2501.070798	-182.211421	-5870.171591	0.000000	0.000000	0.000000	0.000000	0.000000	-0.110000	-0.038000	1.004000	192.000000	0.000000	0.000000	0.000000	0.000000	0.000000	0.000000	0.000000	0.000000	0.000000	1749719062.690237	0.000000
49.000000	2533.212606	-187.195860	-5891.562211	0.000000	0.000000	0.000000	0.000000	0.000000	-0.110000	-0.038000	1.004000	192.000000	0.000000	0.000000	0.000000	0.000000	0.000000	0.000000	0.000000	0.000000	0.000000	1749719062.693296	0.000000
50.000000	2471.432384	-181.965552	-5840.086143	0.000000	0.000000	0.000000	0.000000	0.000000	-0.110000	-0.038000	1.004000	192.000000	0.000000	0.000000	0.000000	0.000000	0.000000	0.000000	0.000000	0.000000	0.000000	1749719062.697413	0.000000
51.000000	2417.251756	-160.284359	-5790.599381	0.000000	0.000000	0.000000	0.000000	0.000000	-0.110000	-0.038000	1.004000	192.000000	0.000000	0.000000	0.000000	0.000000	0.000000	0.000000	0.000000	0.000000	0.000000	1749719062.701281	0.000000
52.000000	2424.001983	-160.329063	-5807.184375	0.000000	0.000000	0.000000	0.000000	0.000000	-0.110000	-0.038000	1.004000	192.000000	0.000000	0.000000	0.000000	0.000000	0.000000	0.000000	0.000000	0.000000	0.000000	1749719062.706247	0.000000
53.000000	2498.120367	-181.853793	-5870.640978	0.000000	0.000000	0.000000	0.000000	0.000000	-0.110000	-0.038000	1.004000	192.000000	0.000000	0.000000	0.000000	0.000000	0.000000	0.000000	0.000000	0.000000	0.000000	1749719062.710184	0.000000
54.000000	2537.504141	-190.682732	-5891.450452	0.000000	0.000000	0.000000	0.000000	0.000000	-0.110000	-0.038000	1.004000	192.000000	0.000000	0.000000	0.000000	0.000000	0.000000	0.000000	0.000000	0.000000	0.000000	1749719062.714261	0.000000
55.000000	2488.106786	-176.847002	-5840.622585	0.000000	0.000000	0.000000	0.000000	0.000000	-0.110000	-0.038000	1.004000	192.000000	0.000000	0.000000	0.000000	0.000000	0.000000	0.000000	0.000000	0.000000	0.000000	1749719062.718262	0.000000
56.000000	2412.624945	-165.626426	-5789.034759	0.000000	0.000000	0.000000	0.000000	0.000000	-0.112000	-0.034000	1.002000	192.000000	252.000000	128.000000	254.000000	240.000000	31.000000	80.000000	0.000000	0.000000	0.000000	1749719062.722342	0.000000
57.000000	2400.197375	-180.400929	-5810.514785	0.000000	0.000000	0.000000	0.000000	0.000000	-0.112000	-0.034000	1.002000	192.000000	0.000000	0.000000	0.000000	0.000000	0.000000	0.000000	0.000000	0.000000	0.000000	1749719062.725383	0.000000
58.000000	2452.746326	-200.942183	-5879.492269	0.000000	0.000000	0.000000	0.000000	0.000000	-0.112000	-0.034000	1.002000	192.000000	0.000000	0.000000	0.000000	0.000000	0.000000	0.000000	0.000000	0.000000	0.000000	1749719062.729311	0.000000
59.000000	2520.963850	-189.363979	-5907.633115	0.000000	0.000000	0.000000	0.000000	0.000000	-0.112000	-0.034000	1.002000	192.000000	0.000000	0.000000	0.000000	0.000000	0.000000	0.000000	0.000000	0.000000	0.000000	1749719062.733294	0.000000
60.000000	2480.238972	-170.588514	-5845.718783	0.000000	0.000000	0.000000	0.000000	0.000000	-0.112000	-0.034000	1.002000	192.000000	0.000000	0.000000	0.000000	0.000000	0.000000	0.000000	0.000000	0.000000	0.000000	1749719062.738321	0.000000
61.000000	2354.018671	-212.296869	-5784.206782	0.000000	0.000000	0.000000	0.000000	0.000000	-0.112000	-0.034000	1.002000	192.000000	0.000000	0.000000	0.000000	0.000000	0.000000	0.000000	0.000000	0.000000	0.000000	1749719062.742290	0.000000
62.000000	2386.406349	-193.186127	-5815.655686	0.000000	0.000000	0.000000	0.000000	0.000000	-0.112000	-0.034000	1.002000	192.000000	0.000000	0.000000	0.000000	0.000000	0.000000	0.000000	0.000000	0.000000	0.000000	1749719062.746317	0.000000
63.000000	2501.607239	-164.039453	-5873.233780	0.000000	0.000000	0.000000	0.000000	0.000000	-0.112000	-0.034000	1.002000	192.000000	0.000000	0.000000	0.000000	0.000000	0.000000	0.000000	0.000000	0.000000	0.000000	1749719062.749318	0.000000
64.000000	2476.416823	-194.370770	-5916.372647	0.000000	0.000000	0.000000	0.000000	0.000000	-0.112000	-0.034000	1.002000	192.000000	0.000000	0.000000	0.000000	0.000000	0.000000	0.000000	0.000000	0.000000	0.000000	1749719062.753406	0.000000
65.000000	2368.122622	-234.603910	-5872.987911	0.000000	0.000000	0.000000	0.000000	0.000000	-0.112000	-0.034000	1.002000	192.000000	0.000000	0.000000	0.000000	0.000000	0.000000	0.000000	0.000000	0.000000	0.000000	1749719062.757507	0.000000
66.000000	2393.380093	-168.129822	-5797.684884	0.000000	0.000000	0.000000	0.000000	0.000000	-0.120000	-0.034000	0.998000	192.000000	252.000000	64.000000	254.000000	240.000000	31.000000	48.000000	0.000000	0.000000	0.000000	1749719062.761307	0.000000
67.000000	2311.349191	-236.257939	-5798.444843	0.000000	0.000000	0.000000	0.000000	0.000000	-0.120000	-0.034000	0.998000	192.000000	0.000000	0.000000	0.000000	0.000000	0.000000	0.000000	0.000000	0.000000	0.000000	1749719062.766461	0.000000
68.000000	2449.550027	-219.002392	-5874.664292	0.000000	0.000000	0.000000	0.000000	0.000000	-0.120000	-0.034000	0.998000	192.000000	0.000000	0.000000	0.000000	0.000000	0.000000	0.000000	0.000000	0.000000	0.000000	1749719062.770368	0.000000
69.000000	2473.399338	-172.130784	-5919.390132	0.000000	0.000000	0.000000	0.000000	0.000000	-0.120000	-0.034000	0.998000	192.000000	0.000000	0.000000	0.000000	0.000000	0.000000	0.000000	0.000000	0.000000	0.000000	1749719062.774312	0.000000
70.000000	2457.239027	-181.294999	-5840.555530	0.000000	0.000000	0.000000	0.000000	0.000000	-0.120000	-0.034000	0.998000	192.000000	0.000000	0.000000	0.000000	0.000000	0.000000	0.000000	0.000000	0.000000	0.000000	1749719062.777354	0.000000
71.000000	2371.944770	-145.867484	-5793.505108	0.000000	0.000000	0.000000	0.000000	0.000000	-0.120000	-0.034000	0.998000	192.000000	0.000000	0.000000	0.000000	0.000000	0.000000	0.000000	0.000000	0.000000	0.000000	1749719062.781592	0.000000
72.000000	2354.733927	-156.842191	-5813.487567	0.000000	0.000000	0.000000	0.000000	0.000000	-0.120000	-0.034000	0.998000	192.000000	0.000000	0.000000	0.000000	0.000000	0.000000	0.000000	0.000000	0.000000	0.000000	1749719062.785583	0.000000
73.000000	2397.112834	-182.278476	-5894.534993	0.000000	0.000000	0.000000	0.000000	0.000000	-0.120000	-0.034000	0.998000	192.000000	0.000000	0.000000	0.000000	0.000000	0.000000	0.000000	0.000000	0.000000	0.000000	1749719062.789391	0.000000
74.000000	2390.474366	-214.397933	-5943.172388	0.000000	0.000000	0.000000	0.000000	0.000000	-0.120000	-0.034000	0.998000	192.000000	0.000000	0.000000	0.000000	0.000000	0.000000	0.000000	0.000000	0.000000	0.000000	1749719062.793364	0.000000
75.000000	2393.491852	-192.359113	-5855.397088	0.000000	0.000000	0.000000	0.000000	0.000000	-0.120000	-0.034000	0.998000	192.000000	0.000000	0.000000	0.000000	0.000000	0.000000	0.000000	0.000000	0.000000	0.000000	1749719062.798349	0.000000
76.000000	2239.622443	-191.710912	-5837.180416	0.000000	0.000000	0.000000	0.000000	0.000000	-0.120000	-0.030000	1.000000	192.000000	252.000000	64.000000	255.000000	16.000000	31.000000	64.000000	0.000000	0.000000	0.000000	1749719062.802371	0.000000
77.000000	2280.950818	-190.347456	-5818.360247	0.000000	0.000000	0.000000	0.000000	0.000000	-0.120000	-0.030000	1.000000	192.000000	0.000000	0.000000	0.000000	0.000000	0.000000	0.000000	0.000000	0.000000	0.000000	1749719062.805482	0.000000
78.000000	2424.225500	-149.577874	-5871.691510	0.000000	0.000000	0.000000	0.000000	0.000000	-0.120000	-0.030000	1.000000	192.000000	0.000000	0.000000	0.000000	0.000000	0.000000	0.000000	0.000000	0.000000	0.000000	1749719062.809508	0.000000
79.000000	2419.576337	-187.844060	-5886.264847	0.000000	0.000000	0.000000	0.000000	0.000000	-0.120000	-0.030000	1.000000	192.000000	0.000000	0.000000	0.000000	0.000000	0.000000	0.000000	0.000000	0.000000	0.000000	1749719062.813653	0.000000
80.000000	2283.856545	-188.313447	-5876.295969	0.000000	0.000000	0.000000	0.000000	0.000000	-0.120000	-0.030000	1.000000	192.000000	0.000000	0.000000	0.000000	0.000000	0.000000	0.000000	0.000000	0.000000	0.000000	1749719062.817513	0.000000
81.000000	2197.422349	-206.194843	-5819.522538	0.000000	0.000000	0.000000	0.000000	0.000000	-0.120000	-0.030000	1.000000	192.000000	0.000000	0.000000	0.000000	0.000000	0.000000	0.000000	0.000000	0.000000	0.000000	1749719062.821448	0.000000
82.000000	2277.665112	-123.135760	-5824.350515	0.000000	0.000000	0.000000	0.000000	0.000000	-0.120000	-0.030000	1.000000	192.000000	0.000000	0.000000	0.000000	0.000000	0.000000	0.000000	0.000000	0.000000	0.000000	1749719062.826449	0.000000
83.000000	2301.849699	-161.424298	-5888.745891	0.000000	0.000000	0.000000	0.000000	0.000000	-0.120000	-0.030000	1.000000	192.000000	0.000000	0.000000	0.000000	0.000000	0.000000	0.000000	0.000000	0.000000	0.000000	1749719062.830540	0.000000
84.000000	2298.161661	-219.807055	-5931.124798	0.000000	0.000000	0.000000	0.000000	0.000000	-0.120000	-0.030000	1.000000	192.000000	0.000000	0.000000	0.000000	0.000000	0.000000	0.000000	0.000000	0.000000	0.000000	1749719062.833540	0.000000
85.000000	2202.272678	-239.856570	-5877.704129	0.000000	0.000000	0.000000	0.000000	0.000000	-0.120000	-0.032000	1.006000	192.000000	252.000000	64.000000	255.000000	0.000000	31.000000	112.000000	0.000000	0.000000	0.000000	1749719062.837547	0.000000
86.000000	2169.817945	-188.559316	-5819.455483	0.000000	0.000000	0.000000	0.000000	0.000000	-0.120000	-0.032000	1.006000	192.000000	0.000000	0.000000	0.000000	0.000000	0.000000	0.000000	0.000000	0.000000	0.000000	1749719062.841621	0.000000
87.000000	2196.125948	-151.880104	-5830.877224	0.000000	0.000000	0.000000	0.000000	0.000000	-0.120000	-0.032000	1.006000	192.000000	0.000000	0.000000	0.000000	0.000000	0.000000	0.000000	0.000000	0.000000	0.000000	1749719062.845578	0.000000
88.000000	2243.757515	-183.954857	-5902.134586	0.000000	0.000000	0.000000	0.000000	0.000000	-0.120000	-0.032000	1.006000	192.000000	0.000000	0.000000	0.000000	0.000000	0.000000	0.000000	0.000000	0.000000	0.000000	1749719062.849488	0.000000
89.000000	2298.608696	-138.044374	-5915.389170	0.000000	0.000000	0.000000	0.000000	0.000000	-0.120000	-0.032000	1.006000	192.000000	0.000000	0.000000	0.000000	0.000000	0.000000	0.000000	0.000000	0.000000	0.000000	1749719062.854553	0.000000
90.000000	2198.517585	-171.706101	-5850.725573	0.000000	0.000000	0.000000	0.000000	0.000000	-0.120000	-0.032000	1.006000	192.000000	0.000000	0.000000	0.000000	0.000000	0.000000	0.000000	0.000000	0.000000	0.000000	1749719062.858576	0.000000
91.000000	2151.333052	-153.422374	-5801.194108	0.000000	0.000000	0.000000	0.000000	0.000000	-0.120000	-0.032000	1.006000	192.000000	0.000000	0.000000	0.000000	0.000000	0.000000	0.000000	0.000000	0.000000	0.000000	1749719062.861560	0.000000
92.000000	2132.177607	-107.780112	-5844.556492	0.000000	0.000000	0.000000	0.000000	0.000000	-0.120000	-0.032000	1.006000	192.000000	0.000000	0.000000	0.000000	0.000000	0.000000	0.000000	0.000000	0.000000	0.000000	1749719062.865554	0.000000
93.000000	2145.231026	-167.347511	-5917.311420	0.000000	0.000000	0.000000	0.000000	0.000000	-0.120000	-0.032000	1.006000	192.000000	0.000000	0.000000	0.000000	0.000000	0.000000	0.000000	0.000000	0.000000	0.000000	1749719062.869616	0.000000
94.000000	2200.730407	-189.632200	-5906.984914	0.000000	0.000000	0.000000	0.000000	0.000000	-0.120000	-0.032000	1.006000	192.000000	0.000000	0.000000	0.000000	0.000000	0.000000	0.000000	0.000000	0.000000	0.000000	1749719062.873583	0.000000
95.000000	2124.779180	-146.806258	-5856.335861	0.000000	0.000000	0.000000	0.000000	0.000000	-0.118000	-0.030000	1.006000	192.000000	252.000000	80.000000	255.000000	16.000000	31.000000	112.000000	0.000000	0.000000	0.000000	1749719062.877636	0.000000
96.000000	2008.974792	-155.724604	-5842.343669	0.000000	0.000000	0.000000	0.000000	0.000000	-0.118000	-0.030000	1.006000	192.000000	0.000000	0.000000	0.000000	0.000000	0.000000	0.000000	0.000000	0.000000	0.000000	1749719062.881590	0.000000
97.000000	1999.363542	-180.244467	-5853.832466	0.000000	0.000000	0.000000	0.000000	0.000000	-0.118000	-0.030000	1.006000	192.000000	0.000000	0.000000	0.000000	0.000000	0.000000	0.000000	0.000000	0.000000	0.000000	1749719062.886647	0.000000
98.000000	2129.294232	-112.585737	-5880.162821	0.000000	0.000000	0.000000	0.000000	0.000000	-0.118000	-0.030000	1.006000	192.000000	0.000000	0.000000	0.000000	0.000000	0.000000	0.000000	0.000000	0.000000	0.000000	1749719062.889592	0.000000
99.000000	2109.155310	-169.225057	-5898.044216	0.000000	0.000000	0.000000	0.000000	0.000000	-0.118000	-0.030000	1.006000	192.000000	0.000000	0.000000	0.000000	0.000000	0.000000	0.000000	0.000000	0.000000	0.000000	1749719062.893673	0.000000
100.000000	1966.350015	-186.748825	-5889.483498	0.000000	0.000000	0.000000	0.000000	0.000000	-0.118000	-0.030000	1.006000	192.000000	0.000000	0.000000	0.000000	0.000000	0.000000	0.000000	0.000000	0.000000	0.000000	1749719062.897759	0.000000
101.000000	1935.973994	-129.662470	-5827.949146	0.000000	0.000000	0.000000	0.000000	0.000000	-0.118000	-0.030000	1.006000	192.000000	0.000000	0.000000	0.000000	0.000000	0.000000	0.000000	0.000000	0.000000	0.000000	1749719062.901716	0.000000
102.000000	1942.076020	-117.346658	-5832.933585	0.000000	0.000000	0.000000	0.000000	0.000000	-0.118000	-0.030000	1.006000	192.000000	0.000000	0.000000	0.000000	0.000000	0.000000	0.000000	0.000000	0.000000	0.000000	1749719062.905703	0.000000
103.000000	1967.333492	-154.808182	-5909.778882	0.000000	0.000000	0.000000	0.000000	0.000000	-0.118000	-0.030000	1.006000	192.000000	0.000000	0.000000	0.000000	0.000000	0.000000	0.000000	0.000000	0.000000	0.000000	1749719062.909624	0.000000
104.000000	1971.267399	-223.495093	-5916.439702	0.000000	0.000000	0.000000	0.000000	0.000000	-0.118000	-0.030000	1.006000	192.000000	0.000000	0.000000	0.000000	0.000000	0.000000	0.000000	0.000000	0.000000	0.000000	1749719062.914681	0.000000
105.000000	1954.078907	-125.013307	-5858.235760	0.000000	0.000000	0.000000	0.000000	0.000000	-0.116000	-0.040000	1.002000	192.000000	252.000000	96.000000	254.000000	192.000000	31.000000	80.000000	0.000000	0.000000	0.000000	1749719062.917727	0.000000
106.000000	1833.178322	-128.209606	-5816.080369	0.000000	0.000000	0.000000	0.000000	0.000000	-0.116000	-0.040000	1.002000	192.000000	0.000000	0.000000	0.000000	0.000000	0.000000	0.000000	0.000000	0.000000	0.000000	1749719062.920705	0.000000
107.000000	1781.702254	-133.596377	-5853.407783	0.000000	0.000000	0.000000	0.000000	0.000000	-0.116000	-0.040000	1.002000	192.000000	0.000000	0.000000	0.000000	0.000000	0.000000	0.000000	0.000000	0.000000	0.000000	1749719062.925728	0.000000
108.000000	1896.947848	-128.209606	-5867.489382	0.000000	0.000000	0.000000	0.000000	0.000000	-0.116000	-0.040000	1.002000	192.000000	0.000000	0.000000	0.000000	0.000000	0.000000	0.000000	0.000000	0.000000	0.000000	1749719062.929865	0.000000
109.000000	1933.492951	-138.446705	-5896.189022	0.000000	0.000000	0.000000	0.000000	0.000000	-0.116000	-0.040000	1.002000	192.000000	0.000000	0.000000	0.000000	0.000000	0.000000	0.000000	0.000000	0.000000	0.000000	1749719062.933687	0.000000
110.000000	1861.520333	-102.840376	-5883.560286	0.000000	0.000000	0.000000	0.000000	0.000000	-0.116000	-0.040000	1.002000	192.000000	0.000000	0.000000	0.000000	0.000000	0.000000	0.000000	0.000000	0.000000	0.000000	1749719062.937774	0.000000
111.000000	1749.091059	-126.667336	-5801.395273	0.000000	0.000000	0.000000	0.000000	0.000000	-0.116000	-0.040000	1.002000	192.000000	0.000000	0.000000	0.000000	0.000000	0.000000	0.000000	0.000000	0.000000	0.000000	1749719062.942852	0.000000
112.000000	1745.045393	-134.758667	-5832.732419	0.000000	0.000000	0.000000	0.000000	0.000000	-0.116000	-0.040000	1.002000	192.000000	0.000000	0.000000	0.000000	0.000000	0.000000	0.000000	0.000000	0.000000	0.000000	1749719062.945843	0.000000
113.000000	1834.027688	-153.802354	-5892.500984	0.000000	0.000000	0.000000	0.000000	0.000000	-0.116000	-0.040000	1.002000	192.000000	0.000000	0.000000	0.000000	0.000000	0.000000	0.000000	0.000000	0.000000	0.000000	1749719062.948836	0.000000
114.000000	1856.692357	-158.965607	-5904.570926	0.000000	0.000000	0.000000	0.000000	0.000000	-0.116000	-0.040000	1.002000	192.000000	0.000000	0.000000	0.000000	0.000000	0.000000	0.000000	0.000000	0.000000	0.000000	1749719062.953832	0.000000
115.000000	1773.454460	-101.745141	-5866.304739	0.000000	0.000000	0.000000	0.000000	0.000000	-0.116000	-0.034000	1.004000	192.000000	252.000000	96.000000	254.000000	240.000000	31.000000	96.000000	0.000000	0.000000	0.000000	1749719062.957959	0.000000
116.000000	1709.416712	-92.670333	-5785.994921	0.000000	0.000000	0.000000	0.000000	0.000000	-0.116000	-0.034000	1.004000	192.000000	0.000000	0.000000	0.000000	0.000000	0.000000	0.000000	0.000000	0.000000	0.000000	1749719062.961757	0.000000
117.000000	1699.000800	-131.361202	-5811.945297	0.000000	0.000000	0.000000	0.000000	0.000000	-0.116000	-0.034000	1.004000	192.000000	0.000000	0.000000	0.000000	0.000000	0.000000	0.000000	0.000000	0.000000	0.000000	1749719062.965805	0.000000
118.000000	1739.122181	-169.672092	-5927.749685	0.000000	0.000000	0.000000	0.000000	0.000000	-0.116000	-0.034000	1.004000	192.000000	0.000000	0.000000	0.000000	0.000000	0.000000	0.000000	0.000000	0.000000	0.000000	1749719062.969811	0.000000
119.000000	1789.838289	-157.624502	-5921.670010	0.000000	0.000000	0.000000	0.000000	0.000000	-0.116000	-0.034000	1.004000	192.000000	0.000000	0.000000	0.000000	0.000000	0.000000	0.000000	0.000000	0.000000	0.000000	1749719062.973795	0.000000
120.000000	1734.048335	-138.625519	-5862.236722	0.000000	0.000000	0.000000	0.000000	0.000000	-0.116000	-0.034000	1.004000	192.000000	0.000000	0.000000	0.000000	0.000000	0.000000	0.000000	0.000000	0.000000	0.000000	1749719062.976847	0.000000
121.000000	1644.239026	-88.199984	-5819.030800	0.000000	0.000000	0.000000	0.000000	0.000000	-0.116000	-0.034000	1.004000	192.000000	0.000000	0.000000	0.000000	0.000000	0.000000	0.000000	0.000000	0.000000	0.000000	1749719062.981861	0.000000
122.000000	1621.417895	-133.395211	-5803.541041	0.000000	0.000000	0.000000	0.000000	0.000000	-0.116000	-0.034000	1.004000	192.000000	0.000000	0.000000	0.000000	0.000000	0.000000	0.000000	0.000000	0.000000	0.000000	1749719062.985877	0.000000
123.000000	1716.524567	-137.038545	-5893.797385	0.000000	0.000000	0.000000	0.000000	0.000000	-0.116000	-0.034000	1.004000	192.000000	0.000000	0.000000	0.000000	0.000000	0.000000	0.000000	0.000000	0.000000	0.000000	1749719062.990467	0.000000
124.000000	1736.261158	-182.189069	-5938.746743	0.000000	0.000000	0.000000	0.000000	0.000000	-0.116000	-0.034000	1.004000	192.000000	0.000000	0.000000	0.000000	0.000000	0.000000	0.000000	0.000000	0.000000	0.000000	1749719062.993870	0.000000
125.000000	1688.361369	-108.517719	-5852.223140	0.000000	0.000000	0.000000	0.000000	0.000000	-0.122000	-0.034000	1.004000	192.000000	252.000000	48.000000	254.000000	240.000000	31.000000	96.000000	0.000000	0.000000	0.000000	1749719062.998816	0.000000
126.000000	1591.354798	-130.981223	-5795.226192	0.000000	0.000000	0.000000	0.000000	0.000000	-0.122000	-0.034000	1.004000	192.000000	0.000000	0.000000	0.000000	0.000000	0.000000	0.000000	0.000000	0.000000	0.000000	1749719063.001815	0.000000
127.000000	1580.961237	-157.780964	-5817.734399	0.000000	0.000000	0.000000	0.000000	0.000000	-0.122000	-0.034000	1.004000	192.000000	0.000000	0.000000	0.000000	0.000000	0.000000	0.000000	0.000000	0.000000	0.000000	1749719063.004892	0.000000
128.000000	1672.670445	-139.988976	-5881.950960	0.000000	0.000000	0.000000	0.000000	0.000000	-0.122000	-0.034000	1.004000	192.000000	0.000000	0.000000	0.000000	0.000000	0.000000	0.000000	0.000000	0.000000	0.000000	1749719063.009893	0.000000
129.000000	1708.880271	-124.923900	-5919.568946	0.000000	0.000000	0.000000	0.000000	0.000000	-0.122000	-0.034000	1.004000	192.000000	0.000000	0.000000	0.000000	0.000000	0.000000	0.000000	0.000000	0.000000	0.000000	1749719063.013952	0.000000
130.000000	1636.237101	-148.572045	-5866.148277	0.000000	0.000000	0.000000	0.000000	0.000000	-0.122000	-0.034000	1.004000	192.000000	0.000000	0.000000	0.000000	0.000000	0.000000	0.000000	0.000000	0.000000	0.000000	1749719063.017980	0.000000
131.000000	1561.023481	-99.487615	-5781.636331	0.000000	0.000000	0.000000	0.000000	0.000000	-0.122000	-0.034000	1.004000	192.000000	0.000000	0.000000	0.000000	0.000000	0.000000	0.000000	0.000000	0.000000	0.000000	1749719063.021885	0.000000
132.000000	1541.912740	-151.254255	-5836.912195	0.000000	0.000000	0.000000	0.000000	0.000000	-0.122000	-0.034000	1.004000	192.000000	0.000000	0.000000	0.000000	0.000000	0.000000	0.000000	0.000000	0.000000	0.000000	1749719063.025860	0.000000
133.000000	1619.003906	-113.032772	-5909.488310	0.000000	0.000000	0.000000	0.000000	0.000000	-0.122000	-0.034000	1.004000	192.000000	0.000000	0.000000	0.000000	0.000000	0.000000	0.000000	0.000000	0.000000	0.000000	1749719063.029848	0.000000
134.000000	1663.528581	-112.071647	-5869.948074	0.000000	0.000000	0.000000	0.000000	0.000000	-0.122000	-0.034000	1.004000	192.000000	0.000000	0.000000	0.000000	0.000000	0.000000	0.000000	0.000000	0.000000	0.000000	1749719063.033883	0.000000
135.000000	1557.313091	-134.624557	-5839.057963	0.000000	0.000000	0.000000	0.000000	0.000000	-0.120000	-0.042000	1.004000	192.000000	252.000000	64.000000	254.000000	176.000000	31.000000	96.000000	0.000000	0.000000	0.000000	1749719063.037982	0.000000
136.000000	1494.348227	-117.637231	-5856.872303	0.000000	0.000000	0.000000	0.000000	0.000000	-0.120000	-0.042000	1.004000	192.000000	0.000000	0.000000	0.000000	0.000000	0.000000	0.000000	0.000000	0.000000	0.000000	1749719063.041894	0.000000
137.000000	1519.270422	-149.354356	-5796.612000	0.000000	0.000000	0.000000	0.000000	0.000000	-0.120000	-0.042000	1.004000	192.000000	0.000000	0.000000	0.000000	0.000000	0.000000	0.000000	0.000000	0.000000	0.000000	1749719063.045166	0.000000
138.000000	1576.535592	-123.538092	-5872.943207	0.000000	0.000000	0.000000	0.000000	0.000000	-0.120000	-0.042000	1.004000	192.000000	0.000000	0.000000	0.000000	0.000000	0.000000	0.000000	0.000000	0.000000	0.000000	1749719063.049031	0.000000
139.000000	1634.784238	-107.109559	-5877.525315	0.000000	0.000000	0.000000	0.000000	0.000000	-0.120000	-0.042000	1.004000	192.000000	0.000000	0.000000	0.000000	0.000000	0.000000	0.000000	0.000000	0.000000	0.000000	1749719063.053911	0.000000
140.000000	1564.286836	-124.879196	-5839.169722	0.000000	0.000000	0.000000	0.000000	0.000000	-0.120000	-0.042000	1.004000	192.000000	0.000000	0.000000	0.000000	0.000000	0.000000	0.000000	0.000000	0.000000	0.000000	1749719063.057889	0.000000
141.000000	1465.872105	-134.401039	-5805.440939	0.000000	0.000000	0.000000	0.000000	0.000000	-0.120000	-0.042000	1.004000	192.000000	0.000000	0.000000	0.000000	0.000000	0.000000	0.000000	0.000000	0.000000	0.000000	1749719063.061997	0.000000
142.000000	1450.181180	-143.118220	-5832.933585	0.000000	0.000000	0.000000	0.000000	0.000000	-0.120000	-0.042000	1.004000	192.000000	0.000000	0.000000	0.000000	0.000000	0.000000	0.000000	0.000000	0.000000	0.000000	1749719063.065953	0.000000
143.000000	1571.037063	-96.425426	-5860.694451	0.000000	0.000000	0.000000	0.000000	0.000000	-0.120000	-0.042000	1.004000	192.000000	0.000000	0.000000	0.000000	0.000000	0.000000	0.000000	0.000000	0.000000	0.000000	1749719063.069971	0.000000
144.000000	1603.692961	-116.653754	-5873.636111	0.000000	0.000000	0.000000	0.000000	0.000000	-0.116000	-0.042000	1.002000	192.000000	252.000000	96.000000	254.000000	176.000000	31.000000	80.000000	0.000000	0.000000	0.000000	1749719063.073113	0.000000
145.000000	1467.235561	-146.158057	-5841.203730	0.000000	0.000000	0.000000	0.000000	0.000000	-0.116000	-0.042000	1.002000	192.000000	0.000000	0.000000	0.000000	0.000000	0.000000	0.000000	0.000000	0.000000	0.000000	1749719063.077035	0.000000
146.000000	1434.892587	-84.243725	-5790.308808	0.000000	0.000000	0.000000	0.000000	0.000000	-0.116000	-0.042000	1.002000	192.000000	0.000000	0.000000	0.000000	0.000000	0.000000	0.000000	0.000000	0.000000	0.000000	1749719063.080987	0.000000
147.000000	1487.977980	-70.653864	-5775.444898	0.000000	0.000000	0.000000	0.000000	0.000000	-0.116000	-0.042000	1.002000	192.000000	0.000000	0.000000	0.000000	0.000000	0.000000	0.000000	0.000000	0.000000	0.000000	1749719063.085943	0.000000
148.000000	1547.254806	-109.389437	-5852.603120	0.000000	0.000000	0.000000	0.000000	0.000000	-0.116000	-0.042000	1.002000	192.000000	0.000000	0.000000	0.000000	0.000000	0.000000	0.000000	0.000000	0.000000	0.000000	1749719063.089964	0.000000
149.000000	1532.301489	-158.965607	-5898.021865	0.000000	0.000000	0.000000	0.000000	0.000000	-0.116000	-0.042000	1.002000	192.000000	0.000000	0.000000	0.000000	0.000000	0.000000	0.000000	0.000000	0.000000	0.000000	1749719063.094056	0.000000
150.000000	1502.730131	-131.338850	-5802.065826	0.000000	0.000000	0.000000	0.000000	0.000000	-0.116000	-0.042000	1.002000	192.000000	0.000000	0.000000	0.000000	0.000000	0.000000	0.000000	0.000000	0.000000	0.000000	1749719063.097000	0.000000
151.000000	1422.263851	-66.518791	-5769.901665	0.000000	0.000000	0.000000	0.000000	0.000000	-0.116000	-0.042000	1.002000	192.000000	0.000000	0.000000	0.000000	0.000000	0.000000	0.000000	0.000000	0.000000	0.000000	1749719063.101092	0.000000
152.000000	1432.098619	-94.078492	-5796.634352	0.000000	0.000000	0.000000	0.000000	0.000000	-0.116000	-0.042000	1.002000	192.000000	0.000000	0.000000	0.000000	0.000000	0.000000	0.000000	0.000000	0.000000	0.000000	1749719063.105164	0.000000
153.000000	1523.696068	-105.209661	-5845.338803	0.000000	0.000000	0.000000	0.000000	0.000000	-0.116000	-0.042000	1.002000	192.000000	0.000000	0.000000	0.000000	0.000000	0.000000	0.000000	0.000000	0.000000	0.000000	1749719063.109099	0.000000
154.000000	1547.813600	-103.622687	-5879.089937	0.000000	0.000000	0.000000	0.000000	0.000000	-0.126000	-0.040000	1.004000	192.000000	252.000000	16.000000	254.000000	192.000000	31.000000	96.000000	0.000000	0.000000	0.000000	1749719063.114012	0.000000
155.000000	1485.921620	-107.847167	-5802.736378	0.000000	0.000000	0.000000	0.000000	0.000000	-0.126000	-0.040000	1.004000	192.000000	0.000000	0.000000	0.000000	0.000000	0.000000	0.000000	0.000000	0.000000	0.000000	1749719063.118044	0.000000
156.000000	1400.090921	-75.951228	-5767.107697	0.000000	0.000000	0.000000	0.000000	0.000000	-0.126000	-0.040000	1.004000	192.000000	0.000000	0.000000	0.000000	0.000000	0.000000	0.000000	0.000000	0.000000	0.000000	1749719063.122041	0.000000
157.000000	1419.738104	-83.819042	-5783.312712	0.000000	0.000000	0.000000	0.000000	0.000000	-0.126000	-0.040000	1.004000	192.000000	0.000000	0.000000	0.000000	0.000000	0.000000	0.000000	0.000000	0.000000	0.000000	1749719063.125080	0.000000
158.000000	1506.194652	-105.723751	-5836.532216	0.000000	0.000000	0.000000	0.000000	0.000000	-0.126000	-0.040000	1.004000	192.000000	0.000000	0.000000	0.000000	0.000000	0.000000	0.000000	0.000000	0.000000	0.000000	1749719063.129151	0.000000
159.000000	1527.473513	-110.507025	-5865.924760	0.000000	0.000000	0.000000	0.000000	0.000000	-0.126000	-0.040000	1.004000	192.000000	0.000000	0.000000	0.000000	0.000000	0.000000	0.000000	0.000000	0.000000	0.000000	1749719063.133212	0.000000
160.000000	1486.659227	-94.950210	-5801.216459	0.000000	0.000000	0.000000	0.000000	0.000000	-0.126000	-0.040000	1.004000	192.000000	0.000000	0.000000	0.000000	0.000000	0.000000	0.000000	0.000000	0.000000	0.000000	1749719063.137098	0.000000
161.000000	1408.405770	-83.506117	-5750.612110	0.000000	0.000000	0.000000	0.000000	0.000000	-0.126000	-0.040000	1.004000	192.000000	0.000000	0.000000	0.000000	0.000000	0.000000	0.000000	0.000000	0.000000	0.000000	1749719063.142095	0.000000
162.000000	1407.019962	-91.105710	-5786.240791	0.000000	0.000000	0.000000	0.000000	0.000000	-0.126000	-0.040000	1.004000	192.000000	0.000000	0.000000	0.000000	0.000000	0.000000	0.000000	0.000000	0.000000	0.000000	1749719063.146137	0.000000
163.000000	1502.260745	-94.726693	-5840.041440	0.000000	0.000000	0.000000	0.000000	0.000000	-0.126000	-0.040000	1.004000	192.000000	0.000000	0.000000	0.000000	0.000000	0.000000	0.000000	0.000000	0.000000	0.000000	1749719063.150100	0.000000
164.000000	1535.453085	-126.913205	-5852.536065	0.000000	0.000000	0.000000	0.000000	0.000000	-0.122000	-0.032000	1.008000	192.000000	252.000000	48.000000	255.000000	0.000000	31.000000	128.000000	0.000000	0.000000	0.000000	1749719063.153157	0.000000
165.000000	1479.707835	-92.871498	-5800.680018	0.000000	0.000000	0.000000	0.000000	0.000000	-0.122000	-0.032000	1.008000	192.000000	0.000000	0.000000	0.000000	0.000000	0.000000	0.000000	0.000000	0.000000	0.000000	1749719063.157149	0.000000
166.000000	1394.994723	-84.757815	-5755.037755	0.000000	0.000000	0.000000	0.000000	0.000000	-0.122000	-0.032000	1.008000	192.000000	0.000000	0.000000	0.000000	0.000000	0.000000	0.000000	0.000000	0.000000	0.000000	1749719063.161276	0.000000
167.000000	1414.328982	-90.904545	-5788.565372	0.000000	0.000000	0.000000	0.000000	0.000000	-0.122000	-0.032000	1.008000	192.000000	0.000000	0.000000	0.000000	0.000000	0.000000	0.000000	0.000000	0.000000	0.000000	1749719063.165224	0.000000
168.000000	1512.676658	-85.137795	-5842.388373	0.000000	0.000000	0.000000	0.000000	0.000000	-0.122000	-0.032000	1.008000	192.000000	0.000000	0.000000	0.000000	0.000000	0.000000	0.000000	0.000000	0.000000	0.000000	1749719063.170105	0.000000
169.000000	1554.452068	-94.905507	-5857.252283	0.000000	0.000000	0.000000	0.000000	0.000000	-0.122000	-0.032000	1.008000	192.000000	0.000000	0.000000	0.000000	0.000000	0.000000	0.000000	0.000000	0.000000	0.000000	1749719063.174172	0.000000
170.000000	1495.197594	-85.316609	-5810.134805	0.000000	0.000000	0.000000	0.000000	0.000000	-0.122000	-0.032000	1.008000	192.000000	0.000000	0.000000	0.000000	0.000000	0.000000	0.000000	0.000000	0.000000	0.000000	1749719063.178182	0.000000
171.000000	1416.497101	-79.169879	-5761.720927	0.000000	0.000000	0.000000	0.000000	0.000000	-0.122000	-0.032000	1.008000	192.000000	0.000000	0.000000	0.000000	0.000000	0.000000	0.000000	0.000000	0.000000	0.000000	1749719063.181206	0.000000
172.000000	1433.551482	-87.887059	-5781.859849	0.000000	0.000000	0.000000	0.000000	0.000000	-0.122000	-0.032000	1.008000	192.000000	0.000000	0.000000	0.000000	0.000000	0.000000	0.000000	0.000000	0.000000	0.000000	1749719063.185236	0.000000
173.000000	1526.132408	-103.645039	-5848.199826	0.000000	0.000000	0.000000	0.000000	0.000000	-0.122000	-0.032000	1.008000	192.000000	0.000000	0.000000	0.000000	0.000000	0.000000	0.000000	0.000000	0.000000	0.000000	1749719063.189247	0.000000
174.000000	1565.203257	-104.092074	-5868.584617	0.000000	0.000000	0.000000	0.000000	0.000000	-0.112000	-0.030000	1.008000	192.000000	252.000000	128.000000	255.000000	16.000000	31.000000	128.000000	0.000000	0.000000	0.000000	1749719063.193384	0.000000
175.000000	1511.290850	-90.882193	-5818.047323	0.000000	0.000000	0.000000	0.000000	0.000000	-0.112000	-0.030000	1.008000	192.000000	0.000000	0.000000	0.000000	0.000000	0.000000	0.000000	0.000000	0.000000	0.000000	1749719063.197262	0.000000
176.000000	1453.511590	-86.210678	-5767.107697	0.000000	0.000000	0.000000	0.000000	0.000000	-0.112000	-0.030000	1.008000	192.000000	0.000000	0.000000	0.000000	0.000000	0.000000	0.000000	0.000000	0.000000	0.000000	1749719063.202163	0.000000
177.000000	1481.607733	-95.419597	-5790.420567	0.000000	0.000000	0.000000	0.000000	0.000000	-0.112000	-0.030000	1.008000	192.000000	0.000000	0.000000	0.000000	0.000000	0.000000	0.000000	0.000000	0.000000	0.000000	1749719063.206338	0.000000
178.000000	1581.698845	-112.563385	-5857.654614	0.000000	0.000000	0.000000	0.000000	0.000000	-0.112000	-0.030000	1.008000	192.000000	0.000000	0.000000	0.000000	0.000000	0.000000	0.000000	0.000000	0.000000	0.000000	1749719063.209210	0.000000
179.000000	1636.326508	-118.173673	-5877.435908	0.000000	0.000000	0.000000	0.000000	0.000000	-0.112000	-0.030000	1.008000	192.000000	0.000000	0.000000	0.000000	0.000000	0.000000	0.000000	0.000000	0.000000	0.000000	1749719063.213252	0.000000
180.000000	1597.456824	-107.981277	-5825.222233	0.000000	0.000000	0.000000	0.000000	0.000000	-0.112000	-0.030000	1.008000	192.000000	0.000000	0.000000	0.000000	0.000000	0.000000	0.000000	0.000000	0.000000	0.000000	1749719063.217287	0.000000
181.000000	1551.166362	-98.012399	-5776.897761	0.000000	0.000000	0.000000	0.000000	0.000000	-0.112000	-0.030000	1.008000	192.000000	0.000000	0.000000	0.000000	0.000000	0.000000	0.000000	0.000000	0.000000	0.000000	1749719063.221294	0.000000
182.000000	1589.901935	-108.048333	-5800.143576	0.000000	0.000000	0.000000	0.000000	0.000000	-0.112000	-0.030000	1.008000	192.000000	0.000000	0.000000	0.000000	0.000000	0.000000	0.000000	0.000000	0.000000	0.000000	1749719063.225299	0.000000
183.000000	1699.090207	-127.762571	-5866.394146	0.000000	0.000000	0.000000	0.000000	0.000000	-0.112000	-0.030000	1.008000	192.000000	0.000000	0.000000	0.000000	0.000000	0.000000	0.000000	0.000000	0.000000	0.000000	1749719063.230239	0.000000
184.000000	1757.540018	-133.976356	-5885.795460	0.000000	0.000000	0.000000	0.000000	0.000000	-0.112000	-0.030000	1.004000	192.000000	252.000000	128.000000	255.000000	16.000000	31.000000	96.000000	0.000000	0.000000	0.000000	1749719063.234275	0.000000
185.000000	1724.101809	-116.273775	-5834.118227	0.000000	0.000000	0.000000	0.000000	0.000000	-0.112000	-0.030000	1.004000	192.000000	0.000000	0.000000	0.000000	0.000000	0.000000	0.000000	0.000000	0.000000	0.000000	1749719063.237270	0.000000
186.000000	1669.988235	-111.445798	-5785.950218	0.000000	0.000000	0.000000	0.000000	0.000000	-0.112000	-0.030000	1.004000	192.000000	0.000000	0.000000	0.000000	0.000000	0.000000	0.000000	0.000000	0.000000	0.000000	1749719063.241303	0.000000
187.000000	1697.592640	-124.812141	-5803.496337	0.000000	0.000000	0.000000	0.000000	0.000000	-0.112000	-0.030000	1.004000	192.000000	0.000000	0.000000	0.000000	0.000000	0.000000	0.000000	0.000000	0.000000	0.000000	1749719063.245295	0.000000
188.000000	1795.403873	-133.909301	-5869.031652	0.000000	0.000000	0.000000	0.000000	0.000000	-0.112000	-0.030000	1.004000	192.000000	0.000000	0.000000	0.000000	0.000000	0.000000	0.000000	0.000000	0.000000	0.000000	1749719063.249382	0.000000
189.000000	1847.058755	-135.563330	-5893.104481	0.000000	0.000000	0.000000	0.000000	0.000000	-0.112000	-0.030000	1.004000	192.000000	0.000000	0.000000	0.000000	0.000000	0.000000	0.000000	0.000000	0.000000	0.000000	1749719063.253319	0.000000
190.000000	1801.170623	-127.896682	-5838.879149	0.000000	0.000000	0.000000	0.000000	0.000000	-0.112000	-0.030000	1.004000	192.000000	0.000000	0.000000	0.000000	0.000000	0.000000	0.000000	0.000000	0.000000	0.000000	1749719063.258387	0.000000
191.000000	1735.501198	-124.968603	-5785.570238	0.000000	0.000000	0.000000	0.000000	0.000000	-0.112000	-0.030000	1.004000	192.000000	0.000000	0.000000	0.000000	0.000000	0.000000	0.000000	0.000000	0.000000	0.000000	1749719063.262381	0.000000
192.000000	1754.231960	-131.629423	-5806.357361	0.000000	0.000000	0.000000	0.000000	0.000000	-0.112000	-0.030000	1.004000	192.000000	0.000000	0.000000	0.000000	0.000000	0.000000	0.000000	0.000000	0.000000	0.000000	1749719063.265366	0.000000
193.000000	1846.656423	-138.267891	-5868.137582	0.000000	0.000000	0.000000	0.000000	0.000000	-0.112000	-0.030000	1.004000	192.000000	0.000000	0.000000	0.000000	0.000000	0.000000	0.000000	0.000000	0.000000	0.000000	1749719063.269497	0.000000
194.000000	1883.916781	-145.442801	-5880.788670	0.000000	0.000000	0.000000	0.000000	0.000000	-0.110000	-0.028000	1.006000	192.000000	252.000000	144.000000	255.000000	32.000000	31.000000	112.000000	0.000000	0.000000	0.000000	1749719063.273387	0.000000
195.000000	1823.365906	-136.613862	-5829.089085	0.000000	0.000000	0.000000	0.000000	0.000000	-0.110000	-0.028000	1.006000	192.000000	0.000000	0.000000	0.000000	0.000000	0.000000	0.000000	0.000000	0.000000	0.000000	1749719063.277581	0.000000
196.000000	1763.105603	-121.280565	-5776.741299	0.000000	0.000000	0.000000	0.000000	0.000000	-0.110000	-0.028000	1.006000	192.000000	0.000000	0.000000	0.000000	0.000000	0.000000	0.000000	0.000000	0.000000	0.000000	1749719063.281423	0.000000
197.000000	1778.058920	-123.940423	-5795.405006	0.000000	0.000000	0.000000	0.000000	0.000000	-0.110000	-0.028000	1.006000	192.000000	0.000000	0.000000	0.000000	0.000000	0.000000	0.000000	0.000000	0.000000	0.000000	1749719063.286462	0.000000
198.000000	1856.759412	-148.929673	-5857.967539	0.000000	0.000000	0.000000	0.000000	0.000000	-0.110000	-0.028000	1.006000	192.000000	0.000000	0.000000	0.000000	0.000000	0.000000	0.000000	0.000000	0.000000	0.000000	1749719063.290339	0.000000
199.000000	1892.365741	-158.160944	-5874.284312	0.000000	0.000000	0.000000	0.000000	0.000000	-0.110000	-0.028000	1.006000	192.000000	0.000000	0.000000	0.000000	0.000000	0.000000	0.000000	0.000000	0.000000	0.000000	1749719063.293339	0.000000
200.000000	1839.794438	-136.815028	-5821.422436	0.000000	0.000000	0.000000	0.000000	0.000000	-0.110000	-0.028000	1.006000	192.000000	0.000000	0.000000	0.000000	0.000000	0.000000	0.000000	0.000000	0.000000	0.000000	1749719063.297359	0.000000
201.000000	1769.945236	-125.415638	-5763.687880	0.000000	0.000000	0.000000	0.000000	0.000000	-0.110000	-0.028000	1.006000	192.000000	0.000000	0.000000	0.000000	0.000000	0.000000	0.000000	0.000000	0.000000	0.000000	1749719063.301430	0.000000
202.000000	1785.278533	-136.658566	-5782.217477	0.000000	0.000000	0.000000	0.000000	0.000000	-0.110000	-0.028000	1.006000	192.000000	0.000000	0.000000	0.000000	0.000000	0.000000	0.000000	0.000000	0.000000	0.000000	1749719063.305508	0.000000
203.000000	1870.148107	-145.599263	-5854.905350	0.000000	0.000000	0.000000	0.000000	0.000000	-0.110000	-0.030000	1.008000	192.000000	252.000000	144.000000	255.000000	16.000000	31.000000	128.000000	0.000000	0.000000	0.000000	1749719063.309443	0.000000
204.000000	1907.363761	-153.355319	-5873.434946	0.000000	0.000000	0.000000	0.000000	0.000000	-0.110000	-0.030000	1.008000	192.000000	0.000000	0.000000	0.000000	0.000000	0.000000	0.000000	0.000000	0.000000	0.000000	1749719063.313475	0.000000
205.000000	1849.249226	-152.483601	-5815.454521	0.000000	0.000000	0.000000	0.000000	0.000000	-0.110000	-0.030000	1.008000	192.000000	0.000000	0.000000	0.000000	0.000000	0.000000	0.000000	0.000000	0.000000	0.000000	1749719063.318436	0.000000
206.000000	1781.635199	-149.019080	-5768.806430	0.000000	0.000000	0.000000	0.000000	0.000000	-0.110000	-0.030000	1.008000	192.000000	0.000000	0.000000	0.000000	0.000000	0.000000	0.000000	0.000000	0.000000	0.000000	1749719063.321495	0.000000
207.000000	1796.767330	-150.002557	-5794.756805	0.000000	0.000000	0.000000	0.000000	0.000000	-0.110000	-0.030000	1.008000	192.000000	0.000000	0.000000	0.000000	0.000000	0.000000	0.000000	0.000000	0.000000	0.000000	1749719063.325480	0.000000
208.000000	1873.389110	-161.111374	-5860.560341	0.000000	0.000000	0.000000	0.000000	0.000000	-0.110000	-0.030000	1.008000	192.000000	0.000000	0.000000	0.000000	0.000000	0.000000	0.000000	0.000000	0.000000	0.000000	1749719063.329490	0.000000
209.000000	1911.744703	-165.089985	-5872.071489	0.000000	0.000000	0.000000	0.000000	0.000000	-0.110000	-0.030000	1.008000	192.000000	0.000000	0.000000	0.000000	0.000000	0.000000	0.000000	0.000000	0.000000	0.000000	1749719063.333789	0.000000
210.000000	1858.212275	-147.990900	-5798.914230	0.000000	0.000000	0.000000	0.000000	0.000000	-0.110000	-0.030000	1.008000	192.000000	0.000000	0.000000	0.000000	0.000000	0.000000	0.000000	0.000000	0.000000	0.000000	1749719063.337647	0.000000
211.000000	1785.502051	-137.552635	-5753.942520	0.000000	0.000000	0.000000	0.000000	0.000000	-0.110000	-0.030000	1.008000	192.000000	0.000000	0.000000	0.000000	0.000000	0.000000	0.000000	0.000000	0.000000	0.000000	1749719063.341550	0.000000
212.000000	1811.564185	-141.352432	-5788.453613	0.000000	0.000000	0.000000	0.000000	0.000000	-0.110000	-0.030000	1.008000	192.000000	0.000000	0.000000	0.000000	0.000000	0.000000	0.000000	0.000000	0.000000	0.000000	1749719063.346566	0.000000
213.000000	1894.198584	-162.206610	-5850.569111	0.000000	0.000000	0.000000	0.000000	0.000000	-0.112000	-0.032000	1.000000	192.000000	252.000000	128.000000	255.000000	0.000000	31.000000	64.000000	0.000000	0.000000	0.000000	1749719063.349471	0.000000
214.000000	1924.798122	-167.213400	-5868.472858	0.000000	0.000000	0.000000	0.000000	0.000000	-0.112000	-0.032000	1.000000	192.000000	0.000000	0.000000	0.000000	0.000000	0.000000	0.000000	0.000000	0.000000	0.000000	1749719063.352560	0.000000
215.000000	1858.748717	-156.819839	-5820.170739	0.000000	0.000000	0.000000	0.000000	0.000000	-0.112000	-0.032000	1.000000	192.000000	0.000000	0.000000	0.000000	0.000000	0.000000	0.000000	0.000000	0.000000	0.000000	1749719063.357514	0.000000
216.000000	1789.100681	-149.957854	-5767.465325	0.000000	0.000000	0.000000	0.000000	0.000000	-0.112000	-0.032000	1.000000	192.000000	0.000000	0.000000	0.000000	0.000000	0.000000	0.000000	0.000000	0.000000	0.000000	1749719063.361661	0.000000
217.000000	1812.011220	-152.193028	-5786.732529	0.000000	0.000000	0.000000	0.000000	0.000000	-0.112000	-0.032000	1.000000	192.000000	0.000000	0.000000	0.000000	0.000000	0.000000	0.000000	0.000000	0.000000	0.000000	1749719063.365702	0.000000
218.000000	1897.864270	-161.178429	-5845.539969	0.000000	0.000000	0.000000	0.000000	0.000000	-0.112000	-0.032000	1.000000	192.000000	0.000000	0.000000	0.000000	0.000000	0.000000	0.000000	0.000000	0.000000	0.000000	1749719063.369492	0.000000
219.000000	1935.012869	-161.446650	-5863.086088	0.000000	0.000000	0.000000	0.000000	0.000000	-0.112000	-0.032000	1.000000	192.000000	0.000000	0.000000	0.000000	0.000000	0.000000	0.000000	0.000000	0.000000	0.000000	1749719063.374492	0.000000
220.000000	1875.870153	-150.203723	-5813.956954	0.000000	0.000000	0.000000	0.000000	0.000000	-0.112000	-0.032000	1.000000	192.000000	0.000000	0.000000	0.000000	0.000000	0.000000	0.000000	0.000000	0.000000	0.000000	1749719063.377569	0.000000
221.000000	1804.366923	-142.224150	-5762.592645	0.000000	0.000000	0.000000	0.000000	0.000000	-0.112000	-0.032000	1.000000	192.000000	0.000000	0.000000	0.000000	0.000000	0.000000	0.000000	0.000000	0.000000	0.000000	1749719063.381692	0.000000
222.000000	1823.410609	-151.522476	-5784.452651	0.000000	0.000000	0.000000	0.000000	0.000000	-0.112000	-0.032000	1.000000	192.000000	0.000000	0.000000	0.000000	0.000000	0.000000	0.000000	0.000000	0.000000	0.000000	1749719063.385555	0.000000
223.000000	1909.487177	-164.039453	-5849.518579	0.000000	0.000000	0.000000	0.000000	0.000000	-0.122000	-0.034000	1.000000	192.000000	252.000000	48.000000	254.000000	240.000000	31.000000	64.000000	0.000000	0.000000	0.000000	1749719063.389513	0.000000
224.000000	1947.149866	-165.022929	-5868.361100	0.000000	0.000000	0.000000	0.000000	0.000000	-0.122000	-0.034000	1.000000	192.000000	0.000000	0.000000	0.000000	0.000000	0.000000	0.000000	0.000000	0.000000	0.000000	1749719063.393710	0.000000
225.000000	1889.325904	-152.237731	-5814.761617	0.000000	0.000000	0.000000	0.000000	0.000000	-0.122000	-0.034000	1.000000	192.000000	0.000000	0.000000	0.000000	0.000000	0.000000	0.000000	0.000000	0.000000	0.000000	1749719063.397652	0.000000
226.000000	1812.145330	-147.096830	-5764.224322	0.000000	0.000000	0.000000	0.000000	0.000000	-0.122000	-0.034000	1.000000	192.000000	0.000000	0.000000	0.000000	0.000000	0.000000	0.000000	0.000000	0.000000	0.000000	1749719063.401559	0.000000
227.000000	1833.982984	-155.925769	-5783.044491	0.000000	0.000000	0.000000	0.000000	0.000000	-0.122000	-0.034000	1.000000	192.000000	0.000000	0.000000	0.000000	0.000000	0.000000	0.000000	0.000000	0.000000	0.000000	1749719063.405558	0.000000
228.000000	1924.216977	-163.301845	-5849.786800	0.000000	0.000000	0.000000	0.000000	0.000000	-0.122000	-0.034000	1.000000	192.000000	0.000000	0.000000	0.000000	0.000000	0.000000	0.000000	0.000000	0.000000	0.000000	1749719063.408639	0.000000
229.000000	1961.834963	-163.413604	-5867.310568	0.000000	0.000000	0.000000	0.000000	0.000000	-0.122000	-0.034000	1.000000	192.000000	0.000000	0.000000	0.000000	0.000000	0.000000	0.000000	0.000000	0.000000	0.000000	1749719063.413654	0.000000
230.000000	1899.875927	-153.332967	-5811.878242	0.000000	0.000000	0.000000	0.000000	0.000000	-0.122000	-0.034000	1.000000	192.000000	0.000000	0.000000	0.000000	0.000000	0.000000	0.000000	0.000000	0.000000	0.000000	1749719063.417677	0.000000
231.000000	1822.740057	-143.408792	-5759.798677	0.000000	0.000000	0.000000	0.000000	0.000000	-0.122000	-0.034000	1.000000	192.000000	0.000000	0.000000	0.000000	0.000000	0.000000	0.000000	0.000000	0.000000	0.000000	1749719063.421718	0.000000
232.000000	1840.979080	-152.193028	-5780.876372	0.000000	0.000000	0.000000	0.000000	0.000000	-0.122000	-0.034000	1.000000	192.000000	0.000000	0.000000	0.000000	0.000000	0.000000	0.000000	0.000000	0.000000	0.000000	1749719063.425592	0.000000
233.000000	1931.503645	-163.659473	-5843.729477	0.000000	0.000000	0.000000	0.000000	0.000000	-0.120000	-0.034000	1.000000	192.000000	252.000000	64.000000	254.000000	240.000000	31.000000	64.000000	0.000000	0.000000	0.000000	1749719063.429631	0.000000
234.000000	1971.759137	-162.743051	-5862.951978	0.000000	0.000000	0.000000	0.000000	0.000000	-0.120000	-0.034000	1.000000	192.000000	0.000000	0.000000	0.000000	0.000000	0.000000	0.000000	0.000000	0.000000	0.000000	1749719063.433653	0.000000
235.000000	1909.688343	-151.745993	-5808.078445	0.000000	0.000000	0.000000	0.000000	0.000000	-0.120000	-0.034000	1.000000	192.000000	0.000000	0.000000	0.000000	0.000000	0.000000	0.000000	0.000000	0.000000	0.000000	1749719063.436639	0.000000
236.000000	1838.632147	-156.395156	-5758.345814	0.000000	0.000000	0.000000	0.000000	0.000000	-0.120000	-0.034000	1.000000	192.000000	0.000000	0.000000	0.000000	0.000000	0.000000	0.000000	0.000000	0.000000	0.000000	1749719063.441712	0.000000
