18.000000	3510.699095	-450.186485	-3774.919066	0.000000	0.000000	0.000000	0.000000	0.000000	0.000000	0.000000	0.000000	192.000000	0.000000	0.000000	0.000000	0.000000	0.000000	0.000000	0.000000	0.000000	0.000000	1750150621.865103	0.000000
19.000000	3511.213185	-449.448878	-3760.569246	0.000000	0.000000	0.000000	0.000000	0.000000	0.000000	0.000000	0.000000	192.000000	0.000000	0.000000	0.000000	0.000000	0.000000	0.000000	0.000000	0.000000	0.000000	1750150621.865261	0.000000
20.000000	3511.771978	-459.730680	-3768.057080	0.000000	0.000000	0.000000	0.000000	0.000000	0.000000	0.000000	0.000000	192.000000	0.000000	0.000000	0.000000	0.000000	0.000000	0.000000	0.000000	0.000000	0.000000	1750150621.865525	0.000000
21.000000	3523.596051	-468.201991	-3793.403958	0.000000	0.000000	0.000000	0.000000	0.000000	0.000000	0.000000	0.000000	192.000000	0.000000	0.000000	0.000000	0.000000	0.000000	0.000000	0.000000	0.000000	0.000000	1750150621.865644	0.000000
0.000000	0.000000	0.000000	0.000000	0.000000	0.000000	0.000000	0.000000	0.000000	-0.112000	-0.010000	1.006000	192.000000	252.000000	128.000000	255.000000	176.000000	31.000000	112.000000	0.000000	0.000000	0.000000	1750150621.946736	0.000000
1.000000	3602.721227	-432.126276	-3841.840189	0.000000	0.000000	0.000000	0.000000	0.000000	-0.112000	-0.010000	1.006000	192.000000	0.000000	0.000000	0.000000	0.000000	0.000000	0.000000	0.000000	0.000000	0.000000	1750150621.963812	0.000000
2.000000	3604.978753	-436.998956	-3853.597206	0.000000	0.000000	0.000000	0.000000	0.000000	-0.112000	-0.010000	1.006000	192.000000	0.000000	0.000000	0.000000	0.000000	0.000000	0.000000	0.000000	0.000000	0.000000	1750150621.966815	0.000000
3.000000	3601.514232	-435.389630	-3848.568064	0.000000	0.000000	0.000000	0.000000	0.000000	-0.112000	-0.010000	1.006000	192.000000	0.000000	0.000000	0.000000	0.000000	0.000000	0.000000	0.000000	0.000000	0.000000	1750150621.970958	0.000000
4.000000	3598.474395	-428.348831	-3831.916014	0.000000	0.000000	0.000000	0.000000	0.000000	-0.112000	-0.010000	1.006000	192.000000	0.000000	0.000000	0.000000	0.000000	0.000000	0.000000	0.000000	0.000000	0.000000	1750150621.975006	0.000000
5.000000	3599.435520	-428.013555	-3829.345564	0.000000	0.000000	0.000000	0.000000	0.000000	-0.112000	-0.010000	1.006000	192.000000	0.000000	0.000000	0.000000	0.000000	0.000000	0.000000	0.000000	0.000000	0.000000	1750150621.977933	0.000000
6.000000	3602.073026	-429.041735	-3841.437857	0.000000	0.000000	0.000000	0.000000	0.000000	-0.112000	-0.010000	1.006000	192.000000	0.000000	0.000000	0.000000	0.000000	0.000000	0.000000	0.000000	0.000000	0.000000	1750150621.982934	0.000000
7.000000	3601.067197	-434.830837	-3854.871256	0.000000	0.000000	0.000000	0.000000	0.000000	-0.112000	-0.010000	1.006000	192.000000	0.000000	0.000000	0.000000	0.000000	0.000000	0.000000	0.000000	0.000000	0.000000	1750150621.986866	0.000000
8.000000	3600.173128	-429.198197	-3850.155038	0.000000	0.000000	0.000000	0.000000	0.000000	-0.112000	-0.002000	1.010000	192.000000	252.000000	128.000000	255.000000	240.000000	31.000000	144.000000	0.000000	0.000000	0.000000	1750150621.991948	0.000000
9.000000	3595.747482	-426.985374	-3834.307651	0.000000	0.000000	0.000000	0.000000	0.000000	-0.112000	-0.002000	1.010000	192.000000	0.000000	0.000000	0.000000	0.000000	0.000000	0.000000	0.000000	0.000000	0.000000	1750150621.995847	0.000000
10.000000	3601.134253	-424.191406	-3827.535072	0.000000	0.000000	0.000000	0.000000	0.000000	-0.112000	-0.002000	1.010000	192.000000	0.000000	0.000000	0.000000	0.000000	0.000000	0.000000	0.000000	0.000000	0.000000	1750150621.998927	0.000000
11.000000	3605.962229	-428.549996	-3842.220168	0.000000	0.000000	0.000000	0.000000	0.000000	-0.112000	-0.002000	1.010000	192.000000	0.000000	0.000000	0.000000	0.000000	0.000000	0.000000	0.000000	0.000000	0.000000	1750150622.003962	0.000000
12.000000	3607.750369	-435.479037	-3856.190009	0.000000	0.000000	0.000000	0.000000	0.000000	-0.112000	-0.002000	1.010000	192.000000	0.000000	0.000000	0.000000	0.000000	0.000000	0.000000	0.000000	0.000000	0.000000	1750150622.007968	0.000000
13.000000	3604.129386	-434.719078	-3851.473791	0.000000	0.000000	0.000000	0.000000	0.000000	-0.112000	-0.002000	1.010000	192.000000	0.000000	0.000000	0.000000	0.000000	0.000000	0.000000	0.000000	0.000000	0.000000	1750150622.010958	0.000000
14.000000	3601.089549	-429.689935	-3834.821741	0.000000	0.000000	0.000000	0.000000	0.000000	-0.112000	-0.002000	1.010000	192.000000	0.000000	0.000000	0.000000	0.000000	0.000000	0.000000	0.000000	0.000000	0.000000	1750150622.013968	0.000000
15.000000	3599.949610	-428.974680	-3830.060819	0.000000	0.000000	0.000000	0.000000	0.000000	-0.112000	-0.002000	1.010000	192.000000	0.000000	0.000000	0.000000	0.000000	0.000000	0.000000	0.000000	0.000000	0.000000	1750150622.017941	0.000000
16.000000	3603.592945	-429.309956	-3843.427163	0.000000	0.000000	0.000000	0.000000	0.000000	-0.112000	-0.002000	1.010000	192.000000	0.000000	0.000000	0.000000	0.000000	0.000000	0.000000	0.000000	0.000000	0.000000	1750150622.022044	0.000000
17.000000	3607.169224	-436.574273	-3855.362994	0.000000	0.000000	0.000000	0.000000	0.000000	-0.112000	-0.004000	1.010000	192.000000	252.000000	128.000000	255.000000	224.000000	31.000000	144.000000	0.000000	0.000000	0.000000	1750150622.027036	0.000000
18.000000	3603.190613	-436.708383	-3850.847942	0.000000	0.000000	0.000000	0.000000	0.000000	-0.112000	-0.004000	1.010000	192.000000	0.000000	0.000000	0.000000	0.000000	0.000000	0.000000	0.000000	0.000000	0.000000	1750150622.031118	0.000000
19.000000	3595.456910	-430.248729	-3835.514645	0.000000	0.000000	0.000000	0.000000	0.000000	-0.112000	-0.004000	1.010000	192.000000	0.000000	0.000000	0.000000	0.000000	0.000000	0.000000	0.000000	0.000000	0.000000	1750150622.034041	0.000000
20.000000	3595.568668	-427.231244	-3829.904357	0.000000	0.000000	0.000000	0.000000	0.000000	-0.112000	-0.004000	1.010000	192.000000	0.000000	0.000000	0.000000	0.000000	0.000000	0.000000	0.000000	0.000000	0.000000	1750150622.037979	0.000000
21.000000	3604.665828	-432.081572	-3845.885854	0.000000	0.000000	0.000000	0.000000	0.000000	-0.112000	-0.004000	1.010000	192.000000	0.000000	0.000000	0.000000	0.000000	0.000000	0.000000	0.000000	0.000000	0.000000	1750150622.042091	0.000000
22.000000	3609.873785	-439.077668	-3862.850829	0.000000	0.000000	0.000000	0.000000	0.000000	-0.112000	-0.004000	1.010000	192.000000	0.000000	0.000000	0.000000	0.000000	0.000000	0.000000	0.000000	0.000000	0.000000	1750150622.045994	0.000000
23.000000	3606.208099	-434.674374	-3853.306634	0.000000	0.000000	0.000000	0.000000	0.000000	-0.112000	-0.004000	1.010000	192.000000	0.000000	0.000000	0.000000	0.000000	0.000000	0.000000	0.000000	0.000000	0.000000	1750150622.050027	0.000000
24.000000	3601.447177	-428.035906	-3832.787732	0.000000	0.000000	0.000000	0.000000	0.000000	-0.112000	-0.004000	1.010000	192.000000	0.000000	0.000000	0.000000	0.000000	0.000000	0.000000	0.000000	0.000000	0.000000	1750150622.054070	0.000000
25.000000	3601.715398	-426.806560	-3832.273642	0.000000	0.000000	0.000000	0.000000	0.000000	-0.112000	-0.004000	1.010000	192.000000	0.000000	0.000000	0.000000	0.000000	0.000000	0.000000	0.000000	0.000000	0.000000	1750150622.058970	0.000000
26.000000	3603.257668	-432.819180	-3847.495180	0.000000	0.000000	0.000000	0.000000	0.000000	-0.112000	-0.004000	1.010000	192.000000	0.000000	0.000000	0.000000	0.000000	0.000000	0.000000	0.000000	0.000000	0.000000	1750150622.061994	0.000000
27.000000	3606.029285	-436.596624	-3860.056860	0.000000	0.000000	0.000000	0.000000	0.000000	-0.116000	-0.002000	1.004000	192.000000	252.000000	96.000000	255.000000	240.000000	31.000000	96.000000	0.000000	0.000000	0.000000	1750150622.066065	0.000000
28.000000	3604.129386	-432.863883	-3853.306634	0.000000	0.000000	0.000000	0.000000	0.000000	-0.116000	-0.002000	1.004000	192.000000	0.000000	0.000000	0.000000	0.000000	0.000000	0.000000	0.000000	0.000000	0.000000	1750150622.070044	0.000000
29.000000	3599.636686	-425.130180	-3835.693459	0.000000	0.000000	0.000000	0.000000	0.000000	-0.116000	-0.002000	1.004000	192.000000	0.000000	0.000000	0.000000	0.000000	0.000000	0.000000	0.000000	0.000000	0.000000	1750150622.074032	0.000000
30.000000	3597.423863	-425.577214	-3832.988898	0.000000	0.000000	0.000000	0.000000	0.000000	-0.116000	-0.002000	1.004000	192.000000	0.000000	0.000000	0.000000	0.000000	0.000000	0.000000	0.000000	0.000000	0.000000	1750150622.078201	0.000000
31.000000	3600.039017	-435.769610	-3849.998575	0.000000	0.000000	0.000000	0.000000	0.000000	-0.116000	-0.002000	1.004000	192.000000	0.000000	0.000000	0.000000	0.000000	0.000000	0.000000	0.000000	0.000000	0.000000	1750150622.082111	0.000000
32.000000	3604.017628	-438.965909	-3859.565122	0.000000	0.000000	0.000000	0.000000	0.000000	-0.116000	-0.002000	1.004000	192.000000	0.000000	0.000000	0.000000	0.000000	0.000000	0.000000	0.000000	0.000000	0.000000	1750150622.087124	0.000000
33.000000	3604.732884	-432.662717	-3852.412564	0.000000	0.000000	0.000000	0.000000	0.000000	-0.116000	-0.002000	1.004000	192.000000	0.000000	0.000000	0.000000	0.000000	0.000000	0.000000	0.000000	0.000000	0.000000	1750150622.090108	0.000000
34.000000	3599.547279	-427.566520	-3836.095790	0.000000	0.000000	0.000000	0.000000	0.000000	-0.116000	-0.002000	1.004000	192.000000	0.000000	0.000000	0.000000	0.000000	0.000000	0.000000	0.000000	0.000000	0.000000	1750150622.094095	0.000000
35.000000	3596.395683	-429.265252	-3829.166750	0.000000	0.000000	0.000000	0.000000	0.000000	-0.116000	-0.002000	1.004000	192.000000	0.000000	0.000000	0.000000	0.000000	0.000000	0.000000	0.000000	0.000000	0.000000	1750150622.098119	0.000000
36.000000	3601.514232	-431.343964	-3842.063706	0.000000	0.000000	0.000000	0.000000	0.000000	-0.116000	-0.002000	1.004000	192.000000	0.000000	0.000000	0.000000	0.000000	0.000000	0.000000	0.000000	0.000000	0.000000	1750150622.102125	0.000000
37.000000	3597.759139	-435.434334	-3854.625387	0.000000	0.000000	0.000000	0.000000	0.000000	-0.114000	-0.006000	1.002000	192.000000	252.000000	112.000000	255.000000	208.000000	31.000000	80.000000	0.000000	0.000000	0.000000	1750150622.106179	0.000000
38.000000	3597.960305	-435.702555	-3845.885854	0.000000	0.000000	0.000000	0.000000	0.000000	-0.114000	-0.006000	1.002000	192.000000	0.000000	0.000000	0.000000	0.000000	0.000000	0.000000	0.000000	0.000000	0.000000	1750150622.110170	0.000000
39.000000	3596.663904	-433.467380	-3831.804255	0.000000	0.000000	0.000000	0.000000	0.000000	-0.114000	-0.006000	1.002000	192.000000	0.000000	0.000000	0.000000	0.000000	0.000000	0.000000	0.000000	0.000000	0.000000	1750150622.115210	0.000000
40.000000	3597.155642	-432.305090	-3831.267814	0.000000	0.000000	0.000000	0.000000	0.000000	-0.114000	-0.006000	1.002000	192.000000	0.000000	0.000000	0.000000	0.000000	0.000000	0.000000	0.000000	0.000000	0.000000	1750150622.118145	0.000000
41.000000	3600.888383	-436.037831	-3848.277491	0.000000	0.000000	0.000000	0.000000	0.000000	-0.114000	-0.006000	1.002000	192.000000	0.000000	0.000000	0.000000	0.000000	0.000000	0.000000	0.000000	0.000000	0.000000	1750150622.121359	0.000000
42.000000	3605.135215	-438.071840	-3862.761422	0.000000	0.000000	0.000000	0.000000	0.000000	-0.114000	-0.006000	1.002000	192.000000	0.000000	0.000000	0.000000	0.000000	0.000000	0.000000	0.000000	0.000000	0.000000	1750150622.126289	0.000000
43.000000	3600.933087	-434.003822	-3853.977186	0.000000	0.000000	0.000000	0.000000	0.000000	-0.114000	-0.006000	1.002000	192.000000	0.000000	0.000000	0.000000	0.000000	0.000000	0.000000	0.000000	0.000000	0.000000	1750150622.130288	0.000000
44.000000	3597.692084	-426.739505	-3834.464113	0.000000	0.000000	0.000000	0.000000	0.000000	-0.114000	-0.006000	1.002000	192.000000	0.000000	0.000000	0.000000	0.000000	0.000000	0.000000	0.000000	0.000000	0.000000	1750150622.134193	0.000000
45.000000	3591.500651	-426.493636	-3831.334869	0.000000	0.000000	0.000000	0.000000	0.000000	-0.114000	-0.006000	1.002000	192.000000	0.000000	0.000000	0.000000	0.000000	0.000000	0.000000	0.000000	0.000000	0.000000	1750150622.138161	0.000000
46.000000	3598.809671	-435.747258	-3850.110334	0.000000	0.000000	0.000000	0.000000	0.000000	-0.114000	-0.006000	1.002000	192.000000	0.000000	0.000000	0.000000	0.000000	0.000000	0.000000	0.000000	0.000000	0.000000	1750150622.143241	0.000000
47.000000	3601.938915	-436.909549	-3864.035471	0.000000	0.000000	0.000000	0.000000	0.000000	-0.116000	-0.006000	1.006000	192.000000	252.000000	96.000000	255.000000	208.000000	31.000000	112.000000	0.000000	0.000000	0.000000	1750150622.146123	0.000000
48.000000	3598.541450	-435.613148	-3856.569988	0.000000	0.000000	0.000000	0.000000	0.000000	-0.116000	-0.006000	1.006000	192.000000	0.000000	0.000000	0.000000	0.000000	0.000000	0.000000	0.000000	0.000000	0.000000	1750150622.149291	0.000000
49.000000	3595.702779	-434.607319	-3841.527264	0.000000	0.000000	0.000000	0.000000	0.000000	-0.116000	-0.006000	1.006000	192.000000	0.000000	0.000000	0.000000	0.000000	0.000000	0.000000	0.000000	0.000000	0.000000	1750150622.154116	0.000000
50.000000	3594.428729	-432.863883	-3836.051087	0.000000	0.000000	0.000000	0.000000	0.000000	-0.116000	-0.006000	1.006000	192.000000	0.000000	0.000000	0.000000	0.000000	0.000000	0.000000	0.000000	0.000000	0.000000	1750150622.159224	0.000000
51.000000	3594.294619	-435.344927	-3848.076325	0.000000	0.000000	0.000000	0.000000	0.000000	-0.116000	-0.006000	1.006000	192.000000	0.000000	0.000000	0.000000	0.000000	0.000000	0.000000	0.000000	0.000000	0.000000	1750150622.163160	0.000000
52.000000	3600.508404	-439.859979	-3863.320215	0.000000	0.000000	0.000000	0.000000	0.000000	-0.116000	-0.006000	1.006000	192.000000	0.000000	0.000000	0.000000	0.000000	0.000000	0.000000	0.000000	0.000000	0.000000	1750150622.166241	0.000000
53.000000	3601.156604	-435.277872	-3860.302730	0.000000	0.000000	0.000000	0.000000	0.000000	-0.116000	-0.006000	1.006000	192.000000	0.000000	0.000000	0.000000	0.000000	0.000000	0.000000	0.000000	0.000000	0.000000	1750150622.171227	0.000000
54.000000	3594.294619	-429.689935	-3840.253215	0.000000	0.000000	0.000000	0.000000	0.000000	-0.116000	-0.006000	1.006000	192.000000	0.000000	0.000000	0.000000	0.000000	0.000000	0.000000	0.000000	0.000000	0.000000	1750150622.174333	0.000000
55.000000	3592.282962	-429.734639	-3833.078305	0.000000	0.000000	0.000000	0.000000	0.000000	-0.116000	-0.006000	1.006000	192.000000	0.000000	0.000000	0.000000	0.000000	0.000000	0.000000	0.000000	0.000000	0.000000	1750150622.177293	0.000000
56.000000	3596.529793	-433.154456	-3847.673994	0.000000	0.000000	0.000000	0.000000	0.000000	-0.116000	-0.006000	1.006000	192.000000	0.000000	0.000000	0.000000	0.000000	0.000000	0.000000	0.000000	0.000000	0.000000	1750150622.182355	0.000000
57.000000	3599.033189	-438.429467	-3861.956759	0.000000	0.000000	0.000000	0.000000	0.000000	-0.116000	-0.004000	1.004000	192.000000	252.000000	96.000000	255.000000	224.000000	31.000000	96.000000	0.000000	0.000000	0.000000	1750150622.186349	0.000000
58.000000	3596.686256	-437.177770	-3854.871256	0.000000	0.000000	0.000000	0.000000	0.000000	-0.116000	-0.004000	1.004000	192.000000	0.000000	0.000000	0.000000	0.000000	0.000000	0.000000	0.000000	0.000000	0.000000	1750150622.190300	0.000000
59.000000	3594.696950	-431.455723	-3839.895587	0.000000	0.000000	0.000000	0.000000	0.000000	-0.116000	-0.004000	1.004000	192.000000	0.000000	0.000000	0.000000	0.000000	0.000000	0.000000	0.000000	0.000000	0.000000	1750150622.194254	0.000000
60.000000	3592.797052	-429.242901	-3834.575872	0.000000	0.000000	0.000000	0.000000	0.000000	-0.116000	-0.004000	1.004000	192.000000	0.000000	0.000000	0.000000	0.000000	0.000000	0.000000	0.000000	0.000000	0.000000	1750150622.198245	0.000000
61.000000	3595.792186	-437.513046	-3847.383421	0.000000	0.000000	0.000000	0.000000	0.000000	-0.116000	-0.004000	1.004000	192.000000	0.000000	0.000000	0.000000	0.000000	0.000000	0.000000	0.000000	0.000000	0.000000	1750150622.202241	0.000000
62.000000	3598.899078	-441.759877	-3864.214285	0.000000	0.000000	0.000000	0.000000	0.000000	-0.116000	-0.004000	1.004000	192.000000	0.000000	0.000000	0.000000	0.000000	0.000000	0.000000	0.000000	0.000000	0.000000	1750150622.205249	0.000000
63.000000	3597.245049	-442.832761	-3858.872218	0.000000	0.000000	0.000000	0.000000	0.000000	-0.116000	-0.004000	1.004000	192.000000	0.000000	0.000000	0.000000	0.000000	0.000000	0.000000	0.000000	0.000000	0.000000	1750150622.210341	0.000000
64.000000	3595.456910	-431.366316	-3840.566139	0.000000	0.000000	0.000000	0.000000	0.000000	-0.116000	-0.004000	1.004000	192.000000	0.000000	0.000000	0.000000	0.000000	0.000000	0.000000	0.000000	0.000000	0.000000	1750150622.214353	0.000000
65.000000	3596.887421	-428.952328	-3834.039430	0.000000	0.000000	0.000000	0.000000	0.000000	-0.116000	-0.004000	1.004000	192.000000	0.000000	0.000000	0.000000	0.000000	0.000000	0.000000	0.000000	0.000000	0.000000	1750150622.218365	0.000000
66.000000	3601.290715	-433.735601	-3846.846979	0.000000	0.000000	0.000000	0.000000	0.000000	-0.116000	-0.004000	1.004000	192.000000	0.000000	0.000000	0.000000	0.000000	0.000000	0.000000	0.000000	0.000000	0.000000	1750150622.222406	0.000000
67.000000	3601.938915	-437.602453	-3862.649663	0.000000	0.000000	0.000000	0.000000	0.000000	-0.122000	-0.008000	1.008000	192.000000	252.000000	48.000000	255.000000	192.000000	31.000000	128.000000	0.000000	0.000000	0.000000	1750150622.226393	0.000000
68.000000	3600.620163	-436.395459	-3858.112259	0.000000	0.000000	0.000000	0.000000	0.000000	-0.122000	-0.008000	1.008000	192.000000	0.000000	0.000000	0.000000	0.000000	0.000000	0.000000	0.000000	0.000000	0.000000	1750150622.230591	0.000000
69.000000	3595.389854	-433.445028	-3840.275567	0.000000	0.000000	0.000000	0.000000	0.000000	-0.122000	-0.008000	1.008000	192.000000	0.000000	0.000000	0.000000	0.000000	0.000000	0.000000	0.000000	0.000000	0.000000	1750150622.233306	0.000000
70.000000	3588.729035	-432.819180	-3833.704154	0.000000	0.000000	0.000000	0.000000	0.000000	-0.122000	-0.008000	1.008000	192.000000	0.000000	0.000000	0.000000	0.000000	0.000000	0.000000	0.000000	0.000000	0.000000	1750150622.237449	0.000000
71.000000	3597.379160	-437.937729	-3846.556407	0.000000	0.000000	0.000000	0.000000	0.000000	-0.122000	-0.008000	1.008000	192.000000	0.000000	0.000000	0.000000	0.000000	0.000000	0.000000	0.000000	0.000000	0.000000	1750150622.242435	0.000000
72.000000	3601.827157	-439.435296	-3861.129744	0.000000	0.000000	0.000000	0.000000	0.000000	-0.122000	-0.008000	1.008000	192.000000	0.000000	0.000000	0.000000	0.000000	0.000000	0.000000	0.000000	0.000000	0.000000	1750150622.246368	0.000000
73.000000	3594.004046	-438.362412	-3856.391174	0.000000	0.000000	0.000000	0.000000	0.000000	-0.122000	-0.008000	1.008000	192.000000	0.000000	0.000000	0.000000	0.000000	0.000000	0.000000	0.000000	0.000000	0.000000	1750150622.250418	0.000000
74.000000	3588.349055	-436.328404	-3841.393154	0.000000	0.000000	0.000000	0.000000	0.000000	-0.122000	-0.008000	1.008000	192.000000	0.000000	0.000000	0.000000	0.000000	0.000000	0.000000	0.000000	0.000000	0.000000	1750150622.254427	0.000000
75.000000	3592.886459	-433.668546	-3832.184235	0.000000	0.000000	0.000000	0.000000	0.000000	-0.122000	-0.008000	1.008000	192.000000	0.000000	0.000000	0.000000	0.000000	0.000000	0.000000	0.000000	0.000000	0.000000	1750150622.258435	0.000000
76.000000	3598.295581	-434.540264	-3843.471866	0.000000	0.000000	0.000000	0.000000	0.000000	-0.116000	-0.010000	1.004000	192.000000	252.000000	96.000000	255.000000	176.000000	31.000000	96.000000	0.000000	0.000000	0.000000	1750150622.261405	0.000000
77.000000	3603.056503	-436.909549	-3862.627311	0.000000	0.000000	0.000000	0.000000	0.000000	-0.116000	-0.010000	1.004000	192.000000	0.000000	0.000000	0.000000	0.000000	0.000000	0.000000	0.000000	0.000000	0.000000	1750150622.265410	0.000000
78.000000	3603.123558	-434.987299	-3860.280378	0.000000	0.000000	0.000000	0.000000	0.000000	-0.116000	-0.010000	1.004000	192.000000	0.000000	0.000000	0.000000	0.000000	0.000000	0.000000	0.000000	0.000000	0.000000	1750150622.270494	0.000000
79.000000	3599.234354	-431.858055	-3844.991785	0.000000	0.000000	0.000000	0.000000	0.000000	-0.116000	-0.010000	1.004000	192.000000	0.000000	0.000000	0.000000	0.000000	0.000000	0.000000	0.000000	0.000000	0.000000	1750150622.274585	0.000000
80.000000	3596.552145	-433.780305	-3837.191026	0.000000	0.000000	0.000000	0.000000	0.000000	-0.116000	-0.010000	1.004000	192.000000	0.000000	0.000000	0.000000	0.000000	0.000000	0.000000	0.000000	0.000000	0.000000	1750150622.278532	0.000000
81.000000	3598.094415	-439.055316	-3850.892645	0.000000	0.000000	0.000000	0.000000	0.000000	-0.116000	-0.010000	1.004000	192.000000	0.000000	0.000000	0.000000	0.000000	0.000000	0.000000	0.000000	0.000000	0.000000	1750150622.283386	0.000000
82.000000	3597.155642	-440.977566	-3865.309520	0.000000	0.000000	0.000000	0.000000	0.000000	-0.116000	-0.010000	1.004000	192.000000	0.000000	0.000000	0.000000	0.000000	0.000000	0.000000	0.000000	0.000000	0.000000	1750150622.286477	0.000000
83.000000	3596.127462	-437.177770	-3861.397965	0.000000	0.000000	0.000000	0.000000	0.000000	-0.116000	-0.010000	1.004000	192.000000	0.000000	0.000000	0.000000	0.000000	0.000000	0.000000	0.000000	0.000000	0.000000	1750150622.290466	0.000000
84.000000	3591.433596	-432.863883	-3844.321232	0.000000	0.000000	0.000000	0.000000	0.000000	-0.116000	-0.010000	1.004000	192.000000	0.000000	0.000000	0.000000	0.000000	0.000000	0.000000	0.000000	0.000000	0.000000	1750150622.294493	0.000000
85.000000	3591.724168	-436.104886	-3836.721639	0.000000	0.000000	0.000000	0.000000	0.000000	-0.116000	-0.010000	1.004000	192.000000	0.000000	0.000000	0.000000	0.000000	0.000000	0.000000	0.000000	0.000000	0.000000	1750150622.298470	0.000000
86.000000	3595.680427	-440.307014	-3847.450477	0.000000	0.000000	0.000000	0.000000	0.000000	-0.116000	-0.008000	1.006000	192.000000	252.000000	96.000000	255.000000	192.000000	31.000000	112.000000	0.000000	0.000000	0.000000	1750150622.302501	0.000000
87.000000	3600.821328	-438.921206	-3863.163753	0.000000	0.000000	0.000000	0.000000	0.000000	-0.116000	-0.008000	1.006000	192.000000	0.000000	0.000000	0.000000	0.000000	0.000000	0.000000	0.000000	0.000000	0.000000	1750150622.305534	0.000000
88.000000	3600.150776	-435.926072	-3863.588436	0.000000	0.000000	0.000000	0.000000	0.000000	-0.116000	-0.008000	1.006000	192.000000	0.000000	0.000000	0.000000	0.000000	0.000000	0.000000	0.000000	0.000000	0.000000	1750150622.310522	0.000000
89.000000	3597.915601	-431.075744	-3847.226959	0.000000	0.000000	0.000000	0.000000	0.000000	-0.116000	-0.008000	1.006000	192.000000	0.000000	0.000000	0.000000	0.000000	0.000000	0.000000	0.000000	0.000000	0.000000	1750150622.314605	0.000000
90.000000	3593.936991	-431.522778	-3840.119104	0.000000	0.000000	0.000000	0.000000	0.000000	-0.116000	-0.008000	1.006000	192.000000	0.000000	0.000000	0.000000	0.000000	0.000000	0.000000	0.000000	0.000000	0.000000	1750150622.318661	0.000000
91.000000	3599.033189	-435.568444	-3855.586512	0.000000	0.000000	0.000000	0.000000	0.000000	-0.116000	-0.008000	1.006000	192.000000	0.000000	0.000000	0.000000	0.000000	0.000000	0.000000	0.000000	0.000000	0.000000	1750150622.322654	0.000000
92.000000	3601.290715	-443.615072	-3869.712814	0.000000	0.000000	0.000000	0.000000	0.000000	-0.116000	-0.008000	1.006000	192.000000	0.000000	0.000000	0.000000	0.000000	0.000000	0.000000	0.000000	0.000000	0.000000	1750150622.325603	0.000000
93.000000	3598.049712	-440.351718	-3864.370747	0.000000	0.000000	0.000000	0.000000	0.000000	-0.116000	-0.008000	1.006000	192.000000	0.000000	0.000000	0.000000	0.000000	0.000000	0.000000	0.000000	0.000000	0.000000	1750150622.329609	0.000000
94.000000	3591.567706	-432.930938	-3846.310538	0.000000	0.000000	0.000000	0.000000	0.000000	-0.116000	-0.008000	1.006000	192.000000	0.000000	0.000000	0.000000	0.000000	0.000000	0.000000	0.000000	0.000000	0.000000	1750150622.333572	0.000000
95.000000	3590.763043	-431.299261	-3836.386363	0.000000	0.000000	0.000000	0.000000	0.000000	-0.116000	-0.008000	1.006000	192.000000	0.000000	0.000000	0.000000	0.000000	0.000000	0.000000	0.000000	0.000000	0.000000	1750150622.337586	0.000000
96.000000	3592.707645	-440.977566	-3853.708965	0.000000	0.000000	0.000000	0.000000	0.000000	-0.114000	-0.006000	1.006000	192.000000	252.000000	112.000000	255.000000	208.000000	31.000000	112.000000	0.000000	0.000000	0.000000	1750150622.342613	0.000000
97.000000	3599.413168	-445.939654	-3871.813878	0.000000	0.000000	0.000000	0.000000	0.000000	-0.114000	-0.006000	1.006000	192.000000	0.000000	0.000000	0.000000	0.000000	0.000000	0.000000	0.000000	0.000000	0.000000	1750150622.346553	0.000000
98.000000	3598.943782	-440.619938	-3866.941198	0.000000	0.000000	0.000000	0.000000	0.000000	-0.114000	-0.006000	1.006000	192.000000	0.000000	0.000000	0.000000	0.000000	0.000000	0.000000	0.000000	0.000000	0.000000	1750150622.350745	0.000000
99.000000	3598.630857	-431.232206	-3849.059802	0.000000	0.000000	0.000000	0.000000	0.000000	-0.114000	-0.006000	1.006000	192.000000	0.000000	0.000000	0.000000	0.000000	0.000000	0.000000	0.000000	0.000000	0.000000	1750150622.353601	0.000000
100.000000	3596.082758	-428.348831	-3841.817837	0.000000	0.000000	0.000000	0.000000	0.000000	-0.114000	-0.006000	1.006000	192.000000	0.000000	0.000000	0.000000	0.000000	0.000000	0.000000	0.000000	0.000000	0.000000	1750150622.357547	0.000000
101.000000	3598.161471	-432.930938	-3854.848904	0.000000	0.000000	0.000000	0.000000	0.000000	-0.114000	-0.006000	1.006000	192.000000	0.000000	0.000000	0.000000	0.000000	0.000000	0.000000	0.000000	0.000000	0.000000	1750150622.361632	0.000000
102.000000	3599.770796	-442.452781	-3869.109317	0.000000	0.000000	0.000000	0.000000	0.000000	-0.114000	-0.006000	1.006000	192.000000	0.000000	0.000000	0.000000	0.000000	0.000000	0.000000	0.000000	0.000000	0.000000	1750150622.365689	0.000000
103.000000	3597.625029	-441.022270	-3865.443631	0.000000	0.000000	0.000000	0.000000	0.000000	-0.114000	-0.006000	1.006000	192.000000	0.000000	0.000000	0.000000	0.000000	0.000000	0.000000	0.000000	0.000000	0.000000	1750150622.369732	0.000000
104.000000	3594.831061	-430.651060	-3846.019965	0.000000	0.000000	0.000000	0.000000	0.000000	-0.114000	-0.006000	1.006000	192.000000	0.000000	0.000000	0.000000	0.000000	0.000000	0.000000	0.000000	0.000000	0.000000	1750150622.374794	0.000000
105.000000	3590.114843	-433.981470	-3838.107447	0.000000	0.000000	0.000000	0.000000	0.000000	-0.114000	-0.006000	1.006000	192.000000	0.000000	0.000000	0.000000	0.000000	0.000000	0.000000	0.000000	0.000000	0.000000	1750150622.378811	0.000000
106.000000	3592.931162	-439.770572	-3850.244445	0.000000	0.000000	0.000000	0.000000	0.000000	-0.116000	-0.004000	1.008000	192.000000	252.000000	96.000000	255.000000	224.000000	31.000000	128.000000	0.000000	0.000000	0.000000	1750150622.382717	0.000000
107.000000	3599.323761	-444.687956	-3868.394061	0.000000	0.000000	0.000000	0.000000	0.000000	-0.116000	-0.004000	1.008000	192.000000	0.000000	0.000000	0.000000	0.000000	0.000000	0.000000	0.000000	0.000000	0.000000	1750150622.385662	0.000000
108.000000	3595.143985	-443.391555	-3863.521381	0.000000	0.000000	0.000000	0.000000	0.000000	-0.116000	-0.004000	1.008000	192.000000	0.000000	0.000000	0.000000	0.000000	0.000000	0.000000	0.000000	0.000000	0.000000	1750150622.389684	0.000000
109.000000	3585.085700	-437.401287	-3844.567102	0.000000	0.000000	0.000000	0.000000	0.000000	-0.116000	-0.004000	1.008000	192.000000	0.000000	0.000000	0.000000	0.000000	0.000000	0.000000	0.000000	0.000000	0.000000	1750150622.393661	0.000000
110.000000	3597.893250	-432.975642	-3844.768267	0.000000	0.000000	0.000000	0.000000	0.000000	-0.116000	-0.004000	1.008000	192.000000	0.000000	0.000000	0.000000	0.000000	0.000000	0.000000	0.000000	0.000000	0.000000	1750150622.399690	0.000000
111.000000	3604.151738	-435.635499	-3860.392137	0.000000	0.000000	0.000000	0.000000	0.000000	-0.116000	-0.004000	1.008000	192.000000	0.000000	0.000000	0.000000	0.000000	0.000000	0.000000	0.000000	0.000000	0.000000	1750150622.402849	0.000000
112.000000	3600.486052	-439.100020	-3872.305616	0.000000	0.000000	0.000000	0.000000	0.000000	-0.116000	-0.004000	1.008000	192.000000	0.000000	0.000000	0.000000	0.000000	0.000000	0.000000	0.000000	0.000000	0.000000	1750150622.406711	0.000000
113.000000	3599.212003	-433.422677	-3865.778907	0.000000	0.000000	0.000000	0.000000	0.000000	-0.116000	-0.004000	1.008000	192.000000	0.000000	0.000000	0.000000	0.000000	0.000000	0.000000	0.000000	0.000000	0.000000	1750150622.409703	0.000000
114.000000	3591.992389	-431.969813	-3845.818799	0.000000	0.000000	0.000000	0.000000	0.000000	-0.116000	-0.004000	1.008000	192.000000	0.000000	0.000000	0.000000	0.000000	0.000000	0.000000	0.000000	0.000000	0.000000	1750150622.413732	0.000000
115.000000	3589.600753	-433.445028	-3841.013174	0.000000	0.000000	0.000000	0.000000	0.000000	-0.116000	-0.004000	1.008000	192.000000	0.000000	0.000000	0.000000	0.000000	0.000000	0.000000	0.000000	0.000000	0.000000	1750150622.417819	0.000000
116.000000	3594.786357	-435.568444	-3851.853770	0.000000	0.000000	0.000000	0.000000	0.000000	-0.114000	-0.006000	1.004000	192.000000	252.000000	112.000000	255.000000	208.000000	31.000000	96.000000	0.000000	0.000000	0.000000	1750150622.421813	0.000000
117.000000	3600.039017	-436.306052	-3869.310483	0.000000	0.000000	0.000000	0.000000	0.000000	-0.114000	-0.006000	1.004000	192.000000	0.000000	0.000000	0.000000	0.000000	0.000000	0.000000	0.000000	0.000000	0.000000	1750150622.425720	0.000000
118.000000	3595.591020	-436.283700	-3863.722547	0.000000	0.000000	0.000000	0.000000	0.000000	-0.114000	-0.006000	1.004000	192.000000	0.000000	0.000000	0.000000	0.000000	0.000000	0.000000	0.000000	0.000000	0.000000	1750150622.430754	0.000000
119.000000	3592.148851	-435.099058	-3845.260006	0.000000	0.000000	0.000000	0.000000	0.000000	-0.114000	-0.006000	1.004000	192.000000	0.000000	0.000000	0.000000	0.000000	0.000000	0.000000	0.000000	0.000000	0.000000	1750150622.434795	0.000000
120.000000	3589.243125	-435.143761	-3837.727468	0.000000	0.000000	0.000000	0.000000	0.000000	-0.114000	-0.006000	1.004000	192.000000	0.000000	0.000000	0.000000	0.000000	0.000000	0.000000	0.000000	0.000000	0.000000	1750150622.437776	0.000000
121.000000	3596.440386	-436.194293	-3852.144343	0.000000	0.000000	0.000000	0.000000	0.000000	-0.114000	-0.006000	1.004000	192.000000	0.000000	0.000000	0.000000	0.000000	0.000000	0.000000	0.000000	0.000000	0.000000	1750150622.441754	0.000000
122.000000	3600.664866	-439.234130	-3868.706986	0.000000	0.000000	0.000000	0.000000	0.000000	-0.114000	-0.006000	1.004000	192.000000	0.000000	0.000000	0.000000	0.000000	0.000000	0.000000	0.000000	0.000000	0.000000	1750150622.445725	0.000000
123.000000	3600.374293	-437.445991	-3862.023814	0.000000	0.000000	0.000000	0.000000	0.000000	-0.114000	-0.006000	1.004000	192.000000	0.000000	0.000000	0.000000	0.000000	0.000000	0.000000	0.000000	0.000000	0.000000	1750150622.449767	0.000000
124.000000	3597.602677	-431.142799	-3845.774096	0.000000	0.000000	0.000000	0.000000	0.000000	-0.114000	-0.006000	1.004000	192.000000	0.000000	0.000000	0.000000	0.000000	0.000000	0.000000	0.000000	0.000000	0.000000	1750150622.453804	0.000000
125.000000	3594.562840	-429.064087	-3841.124933	0.000000	0.000000	0.000000	0.000000	0.000000	-0.114000	-0.006000	1.004000	192.000000	0.000000	0.000000	0.000000	0.000000	0.000000	0.000000	0.000000	0.000000	0.000000	1750150622.458721	0.000000
126.000000	3592.484128	-433.221511	-3853.418392	0.000000	0.000000	0.000000	0.000000	0.000000	-0.114000	-0.006000	1.006000	192.000000	252.000000	112.000000	255.000000	208.000000	31.000000	112.000000	0.000000	0.000000	0.000000	1750150622.462751	0.000000
127.000000	3596.239221	-438.518874	-3865.935369	0.000000	0.000000	0.000000	0.000000	0.000000	-0.114000	-0.006000	1.006000	192.000000	0.000000	0.000000	0.000000	0.000000	0.000000	0.000000	0.000000	0.000000	0.000000	1750150622.465725	0.000000
128.000000	3593.735825	-438.205950	-3859.520419	0.000000	0.000000	0.000000	0.000000	0.000000	-0.114000	-0.006000	1.006000	192.000000	0.000000	0.000000	0.000000	0.000000	0.000000	0.000000	0.000000	0.000000	0.000000	1750150622.469912	0.000000
129.000000	3589.936029	-429.019383	-3842.041354	0.000000	0.000000	0.000000	0.000000	0.000000	-0.114000	-0.006000	1.006000	192.000000	0.000000	0.000000	0.000000	0.000000	0.000000	0.000000	0.000000	0.000000	0.000000	1750150622.473849	0.000000
130.000000	3596.350979	-429.511121	-3836.431067	0.000000	0.000000	0.000000	0.000000	0.000000	-0.114000	-0.006000	1.006000	192.000000	0.000000	0.000000	0.000000	0.000000	0.000000	0.000000	0.000000	0.000000	0.000000	1750150622.477884	0.000000
131.000000	3595.725131	-435.054354	-3851.384384	0.000000	0.000000	0.000000	0.000000	0.000000	-0.114000	-0.006000	1.006000	192.000000	0.000000	0.000000	0.000000	0.000000	0.000000	0.000000	0.000000	0.000000	0.000000	1750150622.481828	0.000000
132.000000	3596.909773	-439.614110	-3865.197762	0.000000	0.000000	0.000000	0.000000	0.000000	-0.114000	-0.006000	1.006000	192.000000	0.000000	0.000000	0.000000	0.000000	0.000000	0.000000	0.000000	0.000000	0.000000	1750150622.485766	0.000000
133.000000	3595.725131	-440.776401	-3859.386308	0.000000	0.000000	0.000000	0.000000	0.000000	-0.114000	-0.006000	1.006000	192.000000	0.000000	0.000000	0.000000	0.000000	0.000000	0.000000	0.000000	0.000000	0.000000	1750150622.490848	0.000000
134.000000	3592.528831	-435.344927	-3841.437857	0.000000	0.000000	0.000000	0.000000	0.000000	-0.114000	-0.006000	1.006000	192.000000	0.000000	0.000000	0.000000	0.000000	0.000000	0.000000	0.000000	0.000000	0.000000	1750150622.493859	0.000000
135.000000	3593.802881	-431.142799	-3837.191026	0.000000	0.000000	0.000000	0.000000	0.000000	-0.114000	-0.006000	1.006000	192.000000	0.000000	0.000000	0.000000	0.000000	0.000000	0.000000	0.000000	0.000000	0.000000	1750150622.497771	0.000000
136.000000	3596.440386	-436.462514	-3848.255139	0.000000	0.000000	0.000000	0.000000	0.000000	-0.114000	-0.002000	0.998000	192.000000	252.000000	112.000000	255.000000	240.000000	31.000000	48.000000	0.000000	0.000000	0.000000	1750150622.501792	0.000000
137.000000	3597.870898	-440.239959	-3860.839172	0.000000	0.000000	0.000000	0.000000	0.000000	-0.114000	-0.002000	0.998000	192.000000	0.000000	0.000000	0.000000	0.000000	0.000000	0.000000	0.000000	0.000000	0.000000	1750150622.505817	0.000000
138.000000	3596.082758	-441.893988	-3854.468924	0.000000	0.000000	0.000000	0.000000	0.000000	-0.114000	-0.002000	0.998000	192.000000	0.000000	0.000000	0.000000	0.000000	0.000000	0.000000	0.000000	0.000000	0.000000	1750150622.509881	0.000000
139.000000	3591.143023	-437.691860	-3841.773133	0.000000	0.000000	0.000000	0.000000	0.000000	-0.114000	-0.002000	0.998000	192.000000	0.000000	0.000000	0.000000	0.000000	0.000000	0.000000	0.000000	0.000000	0.000000	1750150622.513802	0.000000
140.000000	3591.701817	-437.177770	-3835.827569	0.000000	0.000000	0.000000	0.000000	0.000000	-0.114000	-0.002000	0.998000	192.000000	0.000000	0.000000	0.000000	0.000000	0.000000	0.000000	0.000000	0.000000	0.000000	1750150622.518990	0.000000
141.000000	3599.681389	-435.993127	-3847.942215	0.000000	0.000000	0.000000	0.000000	0.000000	-0.114000	-0.002000	0.998000	192.000000	0.000000	0.000000	0.000000	0.000000	0.000000	0.000000	0.000000	0.000000	0.000000	1750150622.521965	0.000000
142.000000	3600.508404	-437.602453	-3861.845000	0.000000	0.000000	0.000000	0.000000	0.000000	-0.114000	-0.002000	0.998000	192.000000	0.000000	0.000000	0.000000	0.000000	0.000000	0.000000	0.000000	0.000000	0.000000	1750150622.525864	0.000000
143.000000	3595.032226	-439.032965	-3859.207494	0.000000	0.000000	0.000000	0.000000	0.000000	-0.114000	-0.002000	0.998000	192.000000	0.000000	0.000000	0.000000	0.000000	0.000000	0.000000	0.000000	0.000000	0.000000	1750150622.529951	0.000000
144.000000	3594.272267	-434.719078	-3843.136590	0.000000	0.000000	0.000000	0.000000	0.000000	-0.114000	-0.002000	0.998000	192.000000	0.000000	0.000000	0.000000	0.000000	0.000000	0.000000	0.000000	0.000000	0.000000	1750150622.535876	0.000000
145.000000	3592.685293	-431.858055	-3835.313479	0.000000	0.000000	0.000000	0.000000	0.000000	-0.116000	-0.002000	0.998000	192.000000	252.000000	96.000000	255.000000	240.000000	31.000000	48.000000	0.000000	0.000000	0.000000	1750150622.538932	0.000000
146.000000	3594.518136	-435.993127	-3851.809067	0.000000	0.000000	0.000000	0.000000	0.000000	-0.116000	-0.002000	0.998000	192.000000	0.000000	0.000000	0.000000	0.000000	0.000000	0.000000	0.000000	0.000000	0.000000	1750150622.541896	0.000000
147.000000	3594.316971	-440.038793	-3864.840134	0.000000	0.000000	0.000000	0.000000	0.000000	-0.116000	-0.002000	0.998000	192.000000	0.000000	0.000000	0.000000	0.000000	0.000000	0.000000	0.000000	0.000000	0.000000	1750150622.546981	0.000000
148.000000	3593.221735	-435.568444	-3862.113221	0.000000	0.000000	0.000000	0.000000	0.000000	-0.116000	-0.002000	0.998000	192.000000	0.000000	0.000000	0.000000	0.000000	0.000000	0.000000	0.000000	0.000000	0.000000	1750150622.550974	0.000000
149.000000	3592.104148	-432.550959	-3844.008308	0.000000	0.000000	0.000000	0.000000	0.000000	-0.116000	-0.002000	0.998000	192.000000	0.000000	0.000000	0.000000	0.000000	0.000000	0.000000	0.000000	0.000000	0.000000	1750150622.553973	0.000000
150.000000	3590.271305	-432.863883	-3835.380535	0.000000	0.000000	0.000000	0.000000	0.000000	-0.116000	-0.002000	0.998000	192.000000	0.000000	0.000000	0.000000	0.000000	0.000000	0.000000	0.000000	0.000000	0.000000	1750150622.557970	0.000000
151.000000	3590.941857	-434.875540	-3849.439782	0.000000	0.000000	0.000000	0.000000	0.000000	-0.116000	-0.002000	0.998000	192.000000	0.000000	0.000000	0.000000	0.000000	0.000000	0.000000	0.000000	0.000000	0.000000	1750150622.564011	0.000000
152.000000	3596.015703	-436.238997	-3860.436840	0.000000	0.000000	0.000000	0.000000	0.000000	-0.116000	-0.002000	0.998000	192.000000	0.000000	0.000000	0.000000	0.000000	0.000000	0.000000	0.000000	0.000000	0.000000	1750150622.567158	0.000000
153.000000	3598.966133	-432.282738	-3858.045203	0.000000	0.000000	0.000000	0.000000	0.000000	-0.116000	-0.002000	0.998000	192.000000	0.000000	0.000000	0.000000	0.000000	0.000000	0.000000	0.000000	0.000000	0.000000	1750150622.570018	0.000000
154.000000	3593.668770	-429.421714	-3841.594320	0.000000	0.000000	0.000000	0.000000	0.000000	-0.116000	-0.002000	0.998000	192.000000	0.000000	0.000000	0.000000	0.000000	0.000000	0.000000	0.000000	0.000000	0.000000	1750150622.575096	0.000000
155.000000	3587.633799	-431.433371	-3834.419410	0.000000	0.000000	0.000000	0.000000	0.000000	-0.116000	0.000000	1.002000	192.000000	252.000000	96.000000	0.000000	0.000000	31.000000	80.000000	0.000000	0.000000	0.000000	1750150622.578006	0.000000
156.000000	3592.305314	-438.720040	-3848.456305	0.000000	0.000000	0.000000	0.000000	0.000000	-0.116000	0.000000	1.002000	192.000000	0.000000	0.000000	0.000000	0.000000	0.000000	0.000000	0.000000	0.000000	0.000000	1750150622.582038	0.000000
157.000000	3595.211040	-441.268139	-3863.186105	0.000000	0.000000	0.000000	0.000000	0.000000	-0.116000	0.000000	1.002000	192.000000	0.000000	0.000000	0.000000	0.000000	0.000000	0.000000	0.000000	0.000000	0.000000	1750150622.586025	0.000000
158.000000	3595.479261	-434.652023	-3859.341605	0.000000	0.000000	0.000000	0.000000	0.000000	-0.116000	0.000000	1.002000	192.000000	0.000000	0.000000	0.000000	0.000000	0.000000	0.000000	0.000000	0.000000	0.000000	1750150622.590018	0.000000
159.000000	3597.826195	-429.533473	-3844.321232	0.000000	0.000000	0.000000	0.000000	0.000000	-0.116000	0.000000	1.002000	192.000000	0.000000	0.000000	0.000000	0.000000	0.000000	0.000000	0.000000	0.000000	0.000000	1750150622.594066	0.000000
160.000000	3596.373331	-430.293433	-3837.503950	0.000000	0.000000	0.000000	0.000000	0.000000	-0.116000	0.000000	1.002000	192.000000	0.000000	0.000000	0.000000	0.000000	0.000000	0.000000	0.000000	0.000000	0.000000	1750150622.598070	0.000000
161.000000	3594.562840	-435.546092	-3850.579721	0.000000	0.000000	0.000000	0.000000	0.000000	-0.116000	0.000000	1.002000	192.000000	0.000000	0.000000	0.000000	0.000000	0.000000	0.000000	0.000000	0.000000	0.000000	1750150622.603040	0.000000
162.000000	3595.792186	-438.384764	-3863.476677	0.000000	0.000000	0.000000	0.000000	0.000000	-0.116000	0.000000	1.002000	192.000000	0.000000	0.000000	0.000000	0.000000	0.000000	0.000000	0.000000	0.000000	0.000000	1750150622.606067	0.000000
163.000000	3597.468567	-435.568444	-3857.888741	0.000000	0.000000	0.000000	0.000000	0.000000	-0.116000	0.000000	1.002000	192.000000	0.000000	0.000000	0.000000	0.000000	0.000000	0.000000	0.000000	0.000000	0.000000	1750150622.609064	0.000000
164.000000	3589.645456	-431.031040	-3838.688593	0.000000	0.000000	0.000000	0.000000	0.000000	-0.116000	0.000000	1.002000	192.000000	0.000000	0.000000	0.000000	0.000000	0.000000	0.000000	0.000000	0.000000	0.000000	1750150622.614165	0.000000
165.000000	3590.204250	-430.069915	-3830.574910	0.000000	0.000000	0.000000	0.000000	0.000000	-0.116000	-0.002000	1.000000	192.000000	252.000000	96.000000	255.000000	240.000000	31.000000	64.000000	0.000000	0.000000	0.000000	1750150622.618172	0.000000
166.000000	3595.412206	-430.584005	-3846.712869	0.000000	0.000000	0.000000	0.000000	0.000000	-0.116000	-0.002000	1.000000	192.000000	0.000000	0.000000	0.000000	0.000000	0.000000	0.000000	0.000000	0.000000	0.000000	1750150622.622027	0.000000
167.000000	3597.379160	-435.657851	-3865.689500	0.000000	0.000000	0.000000	0.000000	0.000000	-0.116000	-0.002000	1.000000	192.000000	0.000000	0.000000	0.000000	0.000000	0.000000	0.000000	0.000000	0.000000	0.000000	1750150622.626069	0.000000
168.000000	3595.009875	-435.389630	-3860.816820	0.000000	0.000000	0.000000	0.000000	0.000000	-0.116000	-0.002000	1.000000	192.000000	0.000000	0.000000	0.000000	0.000000	0.000000	0.000000	0.000000	0.000000	0.000000	1750150622.631121	0.000000
169.000000	3592.685293	-431.925110	-3844.790619	0.000000	0.000000	0.000000	0.000000	0.000000	-0.116000	-0.002000	1.000000	192.000000	0.000000	0.000000	0.000000	0.000000	0.000000	0.000000	0.000000	0.000000	0.000000	1750150622.634105	0.000000
170.000000	3592.394721	-429.086438	-3840.767305	0.000000	0.000000	0.000000	0.000000	0.000000	-0.116000	-0.002000	1.000000	192.000000	0.000000	0.000000	0.000000	0.000000	0.000000	0.000000	0.000000	0.000000	0.000000	1750150622.637106	0.000000
171.000000	3591.813575	-436.060183	-3849.328023	0.000000	0.000000	0.000000	0.000000	0.000000	-0.116000	-0.002000	1.000000	192.000000	0.000000	0.000000	0.000000	0.000000	0.000000	0.000000	0.000000	0.000000	0.000000	1750150622.642099	0.000000
172.000000	3597.267401	-438.250654	-3862.649663	0.000000	0.000000	0.000000	0.000000	0.000000	-0.116000	-0.002000	1.000000	192.000000	0.000000	0.000000	0.000000	0.000000	0.000000	0.000000	0.000000	0.000000	0.000000	1750150622.646087	0.000000
173.000000	3599.122596	-434.897892	-3863.767250	0.000000	0.000000	0.000000	0.000000	0.000000	-0.116000	-0.002000	1.000000	192.000000	0.000000	0.000000	0.000000	0.000000	0.000000	0.000000	0.000000	0.000000	0.000000	1750150622.650170	0.000000
174.000000	3598.206174	-429.086438	-3848.501009	0.000000	0.000000	0.000000	0.000000	0.000000	-0.116000	-0.002000	1.000000	192.000000	0.000000	0.000000	0.000000	0.000000	0.000000	0.000000	0.000000	0.000000	0.000000	1750150622.654168	0.000000
175.000000	3593.311142	-427.521816	-3838.710944	0.000000	0.000000	0.000000	0.000000	0.000000	-0.116000	-0.004000	0.998000	192.000000	252.000000	96.000000	255.000000	224.000000	31.000000	48.000000	0.000000	0.000000	0.000000	1750150622.658199	0.000000
176.000000	3593.489956	-433.422677	-3847.316366	0.000000	0.000000	0.000000	0.000000	0.000000	-0.116000	-0.004000	0.998000	192.000000	0.000000	0.000000	0.000000	0.000000	0.000000	0.000000	0.000000	0.000000	0.000000	1750150622.662249	0.000000
177.000000	3597.937953	-435.791962	-3864.258988	0.000000	0.000000	0.000000	0.000000	0.000000	-0.116000	-0.004000	0.998000	192.000000	0.000000	0.000000	0.000000	0.000000	0.000000	0.000000	0.000000	0.000000	0.000000	1750150622.665210	0.000000
178.000000	3596.686256	-434.875540	-3863.700195	0.000000	0.000000	0.000000	0.000000	0.000000	-0.116000	-0.004000	0.998000	192.000000	0.000000	0.000000	0.000000	0.000000	0.000000	0.000000	0.000000	0.000000	0.000000	1750150622.670265	0.000000
179.000000	3592.774700	-433.154456	-3846.757573	0.000000	0.000000	0.000000	0.000000	0.000000	-0.116000	-0.004000	0.998000	192.000000	0.000000	0.000000	0.000000	0.000000	0.000000	0.000000	0.000000	0.000000	0.000000	1750150622.674258	0.000000
180.000000	3590.718340	-429.533473	-3838.219206	0.000000	0.000000	0.000000	0.000000	0.000000	-0.116000	-0.004000	0.998000	192.000000	0.000000	0.000000	0.000000	0.000000	0.000000	0.000000	0.000000	0.000000	0.000000	1750150622.678236	0.000000
181.000000	3595.568668	-433.087401	-3850.222093	0.000000	0.000000	0.000000	0.000000	0.000000	-0.116000	-0.004000	0.998000	192.000000	0.000000	0.000000	0.000000	0.000000	0.000000	0.000000	0.000000	0.000000	0.000000	1750150622.682222	0.000000
182.000000	3596.798014	-439.323537	-3865.756555	0.000000	0.000000	0.000000	0.000000	0.000000	-0.116000	-0.004000	0.998000	192.000000	0.000000	0.000000	0.000000	0.000000	0.000000	0.000000	0.000000	0.000000	0.000000	1750150622.686511	0.000000
183.000000	3594.406378	-438.451819	-3863.163753	0.000000	0.000000	0.000000	0.000000	0.000000	-0.116000	-0.004000	0.998000	192.000000	0.000000	0.000000	0.000000	0.000000	0.000000	0.000000	0.000000	0.000000	0.000000	1750150622.690219	0.000000
184.000000	3590.494822	-433.780305	-3847.741049	0.000000	0.000000	0.000000	0.000000	0.000000	-0.116000	-0.004000	0.998000	192.000000	0.000000	0.000000	0.000000	0.000000	0.000000	0.000000	0.000000	0.000000	0.000000	1750150622.693288	0.000000
185.000000	3592.484128	-431.411020	-3839.046221	0.000000	0.000000	0.000000	0.000000	0.000000	-0.118000	-0.008000	1.000000	192.000000	252.000000	80.000000	255.000000	192.000000	31.000000	64.000000	0.000000	0.000000	0.000000	1750150622.697260	0.000000
186.000000	3595.926296	-432.193331	-3850.356203	0.000000	0.000000	0.000000	0.000000	0.000000	-0.118000	-0.008000	1.000000	192.000000	0.000000	0.000000	0.000000	0.000000	0.000000	0.000000	0.000000	0.000000	0.000000	1750150622.702248	0.000000
187.000000	3594.361674	-435.568444	-3863.677843	0.000000	0.000000	0.000000	0.000000	0.000000	-0.118000	-0.008000	1.000000	192.000000	0.000000	0.000000	0.000000	0.000000	0.000000	0.000000	0.000000	0.000000	0.000000	1750150622.706333	0.000000
188.000000	3596.328628	-432.908587	-3861.152096	0.000000	0.000000	0.000000	0.000000	0.000000	-0.118000	-0.008000	1.000000	192.000000	0.000000	0.000000	0.000000	0.000000	0.000000	0.000000	0.000000	0.000000	0.000000	1750150622.710389	0.000000
189.000000	3594.451081	-430.874578	-3845.394116	0.000000	0.000000	0.000000	0.000000	0.000000	-0.118000	-0.008000	1.000000	192.000000	0.000000	0.000000	0.000000	0.000000	0.000000	0.000000	0.000000	0.000000	0.000000	1750150622.714391	0.000000
190.000000	3591.098319	-428.795866	-3836.766343	0.000000	0.000000	0.000000	0.000000	0.000000	-0.118000	-0.008000	1.000000	192.000000	0.000000	0.000000	0.000000	0.000000	0.000000	0.000000	0.000000	0.000000	0.000000	1750150622.718338	0.000000
191.000000	3591.768872	-435.747258	-3848.232788	0.000000	0.000000	0.000000	0.000000	0.000000	-0.118000	-0.008000	1.000000	192.000000	0.000000	0.000000	0.000000	0.000000	0.000000	0.000000	0.000000	0.000000	0.000000	1750150622.721330	0.000000
192.000000	3597.066235	-438.697688	-3861.889703	0.000000	0.000000	0.000000	0.000000	0.000000	-0.118000	-0.008000	1.000000	192.000000	0.000000	0.000000	0.000000	0.000000	0.000000	0.000000	0.000000	0.000000	0.000000	1750150622.725311	0.000000
193.000000	3597.356808	-438.027136	-3859.900398	0.000000	0.000000	0.000000	0.000000	0.000000	-0.118000	-0.008000	1.000000	192.000000	0.000000	0.000000	0.000000	0.000000	0.000000	0.000000	0.000000	0.000000	0.000000	1750150622.730246	0.000000
194.000000	3591.880630	-432.752124	-3843.874197	0.000000	0.000000	0.000000	0.000000	0.000000	-0.118000	-0.008000	1.000000	192.000000	0.000000	0.000000	0.000000	0.000000	0.000000	0.000000	0.000000	0.000000	0.000000	1750150622.734241	0.000000
195.000000	3588.416110	-432.215683	-3833.950023	0.000000	0.000000	0.000000	0.000000	0.000000	-0.116000	-0.010000	1.002000	192.000000	252.000000	96.000000	255.000000	176.000000	31.000000	80.000000	0.000000	0.000000	0.000000	1750150622.738324	0.000000
196.000000	3596.350979	-432.975642	-3845.192950	0.000000	0.000000	0.000000	0.000000	0.000000	-0.116000	-0.010000	1.002000	192.000000	0.000000	0.000000	0.000000	0.000000	0.000000	0.000000	0.000000	0.000000	0.000000	1750150622.742275	0.000000
197.000000	3597.803843	-435.948424	-3864.013119	0.000000	0.000000	0.000000	0.000000	0.000000	-0.116000	-0.010000	1.002000	192.000000	0.000000	0.000000	0.000000	0.000000	0.000000	0.000000	0.000000	0.000000	0.000000	1750150622.745280	0.000000
198.000000	3599.860203	-436.618976	-3865.488334	0.000000	0.000000	0.000000	0.000000	0.000000	-0.116000	-0.010000	1.002000	192.000000	0.000000	0.000000	0.000000	0.000000	0.000000	0.000000	0.000000	0.000000	0.000000	1750150622.749298	0.000000
199.000000	3597.915601	-431.008688	-3849.037450	0.000000	0.000000	0.000000	0.000000	0.000000	-0.116000	-0.010000	1.002000	192.000000	0.000000	0.000000	0.000000	0.000000	0.000000	0.000000	0.000000	0.000000	0.000000	1750150622.753448	0.000000
200.000000	3595.412206	-428.170017	-3836.878101	0.000000	0.000000	0.000000	0.000000	0.000000	-0.116000	-0.010000	1.002000	192.000000	0.000000	0.000000	0.000000	0.000000	0.000000	0.000000	0.000000	0.000000	0.000000	1750150622.758452	0.000000
201.000000	3596.462738	-431.254558	-3846.444648	0.000000	0.000000	0.000000	0.000000	0.000000	-0.116000	-0.010000	1.002000	192.000000	0.000000	0.000000	0.000000	0.000000	0.000000	0.000000	0.000000	0.000000	0.000000	1750150622.762478	0.000000
202.000000	3596.015703	-438.742392	-3860.369785	0.000000	0.000000	0.000000	0.000000	0.000000	-0.116000	-0.010000	1.002000	192.000000	0.000000	0.000000	0.000000	0.000000	0.000000	0.000000	0.000000	0.000000	0.000000	1750150622.766408	0.000000
203.000000	3592.953514	-438.183598	-3858.089907	0.000000	0.000000	0.000000	0.000000	0.000000	-0.116000	-0.010000	1.002000	192.000000	0.000000	0.000000	0.000000	0.000000	0.000000	0.000000	0.000000	0.000000	0.000000	1750150622.770404	0.000000
204.000000	3596.753311	-428.393534	-3842.644852	0.000000	0.000000	0.000000	0.000000	0.000000	-0.120000	-0.006000	1.004000	192.000000	252.000000	64.000000	255.000000	208.000000	31.000000	96.000000	0.000000	0.000000	0.000000	1750150622.773391	0.000000
205.000000	3594.473433	-428.818217	-3837.481599	0.000000	0.000000	0.000000	0.000000	0.000000	-0.120000	-0.006000	1.004000	192.000000	0.000000	0.000000	0.000000	0.000000	0.000000	0.000000	0.000000	0.000000	0.000000	1750150622.777386	0.000000
206.000000	3600.933087	-430.695764	-3851.496142	0.000000	0.000000	0.000000	0.000000	0.000000	-0.120000	-0.006000	1.004000	192.000000	0.000000	0.000000	0.000000	0.000000	0.000000	0.000000	0.000000	0.000000	0.000000	1750150622.781433	0.000000
207.000000	3603.369427	-430.919281	-3867.097660	0.000000	0.000000	0.000000	0.000000	0.000000	-0.120000	-0.006000	1.004000	192.000000	0.000000	0.000000	0.000000	0.000000	0.000000	0.000000	0.000000	0.000000	0.000000	1750150622.785431	0.000000
208.000000	3598.720264	-433.288566	-3863.230808	0.000000	0.000000	0.000000	0.000000	0.000000	-0.120000	-0.006000	1.004000	192.000000	0.000000	0.000000	0.000000	0.000000	0.000000	0.000000	0.000000	0.000000	0.000000	1750150622.790385	0.000000
209.000000	3594.428729	-430.785171	-3843.203645	0.000000	0.000000	0.000000	0.000000	0.000000	-0.120000	-0.006000	1.004000	192.000000	0.000000	0.000000	0.000000	0.000000	0.000000	0.000000	0.000000	0.000000	0.000000	1750150622.794444	0.000000
210.000000	3594.115805	-429.421714	-3834.218244	0.000000	0.000000	0.000000	0.000000	0.000000	-0.120000	-0.006000	1.004000	192.000000	0.000000	0.000000	0.000000	0.000000	0.000000	0.000000	0.000000	0.000000	0.000000	1750150622.798420	0.000000
211.000000	3594.607543	-434.987299	-3844.187122	0.000000	0.000000	0.000000	0.000000	0.000000	-0.120000	-0.006000	1.004000	192.000000	0.000000	0.000000	0.000000	0.000000	0.000000	0.000000	0.000000	0.000000	0.000000	1750150622.801418	0.000000
212.000000	3597.177994	-438.742392	-3860.280378	0.000000	0.000000	0.000000	0.000000	0.000000	-0.120000	-0.006000	1.004000	192.000000	0.000000	0.000000	0.000000	0.000000	0.000000	0.000000	0.000000	0.000000	0.000000	1750150622.805546	0.000000
213.000000	3595.143985	-435.613148	-3859.408660	0.000000	0.000000	0.000000	0.000000	0.000000	-0.120000	-0.006000	1.004000	192.000000	0.000000	0.000000	0.000000	0.000000	0.000000	0.000000	0.000000	0.000000	0.000000	1750150622.809578	0.000000
214.000000	3585.063348	-432.170979	-3840.119104	0.000000	0.000000	0.000000	0.000000	0.000000	-0.120000	-0.002000	1.006000	192.000000	252.000000	64.000000	255.000000	240.000000	31.000000	112.000000	0.000000	0.000000	0.000000	1750150622.813427	0.000000
215.000000	3586.806784	-434.093229	-3834.352354	0.000000	0.000000	0.000000	0.000000	0.000000	-0.120000	-0.002000	1.006000	192.000000	0.000000	0.000000	0.000000	0.000000	0.000000	0.000000	0.000000	0.000000	0.000000	1750150622.818491	0.000000
216.000000	3600.754273	-430.852226	-3847.048145	0.000000	0.000000	0.000000	0.000000	0.000000	-0.120000	-0.002000	1.006000	192.000000	0.000000	0.000000	0.000000	0.000000	0.000000	0.000000	0.000000	0.000000	0.000000	1750150622.822489	0.000000
217.000000	3604.978753	-433.109752	-3864.929541	0.000000	0.000000	0.000000	0.000000	0.000000	-0.120000	-0.002000	1.006000	192.000000	0.000000	0.000000	0.000000	0.000000	0.000000	0.000000	0.000000	0.000000	0.000000	1750150622.826443	0.000000
218.000000	3602.385950	-430.204026	-3864.482506	0.000000	0.000000	0.000000	0.000000	0.000000	-0.120000	-0.002000	1.006000	192.000000	0.000000	0.000000	0.000000	0.000000	0.000000	0.000000	0.000000	0.000000	0.000000	1750150622.829583	0.000000
219.000000	3597.222697	-425.979546	-3847.092849	0.000000	0.000000	0.000000	0.000000	0.000000	-0.120000	-0.002000	1.006000	192.000000	0.000000	0.000000	0.000000	0.000000	0.000000	0.000000	0.000000	0.000000	0.000000	1750150622.833551	0.000000
220.000000	3592.908811	-428.795866	-3836.453418	0.000000	0.000000	0.000000	0.000000	0.000000	-0.120000	-0.002000	1.006000	192.000000	0.000000	0.000000	0.000000	0.000000	0.000000	0.000000	0.000000	0.000000	0.000000	1750150622.837540	0.000000
221.000000	3595.412206	-432.439200	-3848.344546	0.000000	0.000000	0.000000	0.000000	0.000000	-0.120000	-0.002000	1.006000	192.000000	0.000000	0.000000	0.000000	0.000000	0.000000	0.000000	0.000000	0.000000	0.000000	1750150622.841553	0.000000
222.000000	3597.781491	-435.836665	-3862.649663	0.000000	0.000000	0.000000	0.000000	0.000000	-0.120000	-0.002000	1.006000	192.000000	0.000000	0.000000	0.000000	0.000000	0.000000	0.000000	0.000000	0.000000	0.000000	1750150622.845604	0.000000
223.000000	3593.735825	-436.127238	-3859.989805	0.000000	0.000000	0.000000	0.000000	0.000000	-0.120000	-0.002000	1.006000	192.000000	0.000000	0.000000	0.000000	0.000000	0.000000	0.000000	0.000000	0.000000	0.000000	1750150622.850601	0.000000
224.000000	3590.114843	-429.801694	-3845.081192	0.000000	0.000000	0.000000	0.000000	0.000000	-0.120000	-0.006000	1.004000	192.000000	252.000000	64.000000	255.000000	208.000000	31.000000	96.000000	0.000000	0.000000	0.000000	1750150622.854595	0.000000
225.000000	3584.616314	-425.107828	-3831.625442	0.000000	0.000000	0.000000	0.000000	0.000000	-0.120000	-0.006000	1.004000	192.000000	0.000000	0.000000	0.000000	0.000000	0.000000	0.000000	0.000000	0.000000	0.000000	1750150622.857575	0.000000
226.000000	3592.618238	-433.176808	-3840.119104	0.000000	0.000000	0.000000	0.000000	0.000000	-0.120000	-0.006000	1.004000	192.000000	0.000000	0.000000	0.000000	0.000000	0.000000	0.000000	0.000000	0.000000	0.000000	1750150622.861551	0.000000
227.000000	3602.520061	-440.686994	-3865.778907	0.000000	0.000000	0.000000	0.000000	0.000000	-0.120000	-0.006000	1.004000	192.000000	0.000000	0.000000	0.000000	0.000000	0.000000	0.000000	0.000000	0.000000	0.000000	1750150622.865575	0.000000
228.000000	3600.441349	-436.775438	-3866.874143	0.000000	0.000000	0.000000	0.000000	0.000000	-0.120000	-0.006000	1.004000	192.000000	0.000000	0.000000	0.000000	0.000000	0.000000	0.000000	0.000000	0.000000	0.000000	1750150622.869577	0.000000
229.000000	3595.635724	-429.131142	-3849.372727	0.000000	0.000000	0.000000	0.000000	0.000000	-0.120000	-0.006000	1.004000	192.000000	0.000000	0.000000	0.000000	0.000000	0.000000	0.000000	0.000000	0.000000	0.000000	1750150622.873633	0.000000
230.000000	3594.182860	-427.231244	-3839.940290	0.000000	0.000000	0.000000	0.000000	0.000000	-0.120000	-0.006000	1.004000	192.000000	0.000000	0.000000	0.000000	0.000000	0.000000	0.000000	0.000000	0.000000	0.000000	1750150622.878510	0.000000
231.000000	3596.418035	-428.348831	-3850.400907	0.000000	0.000000	0.000000	0.000000	0.000000	-0.120000	-0.006000	1.004000	192.000000	0.000000	0.000000	0.000000	0.000000	0.000000	0.000000	0.000000	0.000000	0.000000	1750150622.882589	0.000000
232.000000	3599.927258	-432.103924	-3863.029642	0.000000	0.000000	0.000000	0.000000	0.000000	-0.120000	-0.006000	1.004000	192.000000	0.000000	0.000000	0.000000	0.000000	0.000000	0.000000	0.000000	0.000000	0.000000	1750150622.885629	0.000000
233.000000	3599.949610	-432.439200	-3861.465020	0.000000	0.000000	0.000000	0.000000	0.000000	-0.120000	-0.006000	1.004000	192.000000	0.000000	0.000000	0.000000	0.000000	0.000000	0.000000	0.000000	0.000000	0.000000	1750150622.889608	0.000000
234.000000	3594.115805	-424.951366	-3845.058840	0.000000	0.000000	0.000000	0.000000	0.000000	-0.122000	-0.002000	1.002000	192.000000	252.000000	48.000000	255.000000	240.000000	31.000000	80.000000	0.000000	0.000000	0.000000	1750150622.893701	0.000000
235.000000	3586.672674	-428.035906	-3835.425238	0.000000	0.000000	0.000000	0.000000	0.000000	-0.122000	-0.002000	1.002000	192.000000	0.000000	0.000000	0.000000	0.000000	0.000000	0.000000	0.000000	0.000000	0.000000	1750150622.897689	0.000000
236.000000	3589.332532	-433.892063	-3845.729392	0.000000	0.000000	0.000000	0.000000	0.000000	-0.122000	-0.002000	1.002000	192.000000	0.000000	0.000000	0.000000	0.000000	0.000000	0.000000	0.000000	0.000000	0.000000	1750150622.901642	0.000000
237.000000	3603.414131	-432.595662	-3863.521381	0.000000	0.000000	0.000000	0.000000	0.000000	-0.122000	-0.002000	1.002000	192.000000	0.000000	0.000000	0.000000	0.000000	0.000000	0.000000	0.000000	0.000000	0.000000	1750150622.906632	0.000000
238.000000	3596.686256	-427.320650	-3858.224017	0.000000	0.000000	0.000000	0.000000	0.000000	-0.122000	-0.002000	1.002000	192.000000	0.000000	0.000000	0.000000	0.000000	0.000000	0.000000	0.000000	0.000000	0.000000	1750150622.910662	0.000000
239.000000	3593.422901	-425.063124	-3844.254177	0.000000	0.000000	0.000000	0.000000	0.000000	-0.122000	-0.002000	1.002000	192.000000	0.000000	0.000000	0.000000	0.000000	0.000000	0.000000	0.000000	0.000000	0.000000	1750150622.913651	0.000000
240.000000	3595.032226	-424.929014	-3838.979165	0.000000	0.000000	0.000000	0.000000	0.000000	-0.122000	-0.002000	1.002000	192.000000	0.000000	0.000000	0.000000	0.000000	0.000000	0.000000	0.000000	0.000000	0.000000	1750150622.917657	0.000000
241.000000	3596.283924	-430.181674	-3849.618596	0.000000	0.000000	0.000000	0.000000	0.000000	-0.122000	-0.002000	1.002000	192.000000	0.000000	0.000000	0.000000	0.000000	0.000000	0.000000	0.000000	0.000000	0.000000	1750150622.921684	0.000000
242.000000	3598.429692	-432.908587	-3865.533038	0.000000	0.000000	0.000000	0.000000	0.000000	-0.122000	-0.002000	1.002000	192.000000	0.000000	0.000000	0.000000	0.000000	0.000000	0.000000	0.000000	0.000000	0.000000	1750150622.925693	0.000000
243.000000	3599.122596	-430.807523	-3865.533038	0.000000	0.000000	0.000000	0.000000	0.000000	-0.122000	-0.002000	1.002000	192.000000	0.000000	0.000000	0.000000	0.000000	0.000000	0.000000	0.000000	0.000000	0.000000	1750150622.929647	0.000000
244.000000	3594.719302	-425.800732	-3848.925692	0.000000	0.000000	0.000000	0.000000	0.000000	-0.118000	-0.004000	1.004000	192.000000	252.000000	80.000000	255.000000	224.000000	31.000000	96.000000	0.000000	0.000000	0.000000	1750150622.934684	0.000000
245.000000	3595.591020	-425.465456	-3836.811046	0.000000	0.000000	0.000000	0.000000	0.000000	-0.118000	-0.004000	1.004000	192.000000	0.000000	0.000000	0.000000	0.000000	0.000000	0.000000	0.000000	0.000000	0.000000	1750150622.937716	0.000000
246.000000	3596.350979	-429.444066	-3849.328023	0.000000	0.000000	0.000000	0.000000	0.000000	-0.118000	-0.004000	1.004000	192.000000	0.000000	0.000000	0.000000	0.000000	0.000000	0.000000	0.000000	0.000000	0.000000	1750150622.941659	0.000000
247.000000	3596.596849	-434.875540	-3866.941198	0.000000	0.000000	0.000000	0.000000	0.000000	-0.118000	-0.004000	1.004000	192.000000	0.000000	0.000000	0.000000	0.000000	0.000000	0.000000	0.000000	0.000000	0.000000	1750150622.945822	0.000000
248.000000	3592.461776	-435.724906	-3861.196799	0.000000	0.000000	0.000000	0.000000	0.000000	-0.118000	-0.004000	1.004000	192.000000	0.000000	0.000000	0.000000	0.000000	0.000000	0.000000	0.000000	0.000000	0.000000	1750150622.950078	0.000000
249.000000	3591.880630	-428.192369	-3840.342622	0.000000	0.000000	0.000000	0.000000	0.000000	-0.118000	-0.004000	1.004000	192.000000	0.000000	0.000000	0.000000	0.000000	0.000000	0.000000	0.000000	0.000000	0.000000	1750150622.953740	0.000000
250.000000	3591.880630	-425.040773	-3832.899491	0.000000	0.000000	0.000000	0.000000	0.000000	-0.118000	-0.004000	1.004000	192.000000	0.000000	0.000000	0.000000	0.000000	0.000000	0.000000	0.000000	0.000000	0.000000	1750150622.957721	0.000000
251.000000	3591.008912	-431.768648	-3843.494218	0.000000	0.000000	0.000000	0.000000	0.000000	-0.118000	-0.004000	1.004000	192.000000	0.000000	0.000000	0.000000	0.000000	0.000000	0.000000	0.000000	0.000000	0.000000	1750150622.962801	0.000000
252.000000	3598.586154	-437.043659	-3863.901361	0.000000	0.000000	0.000000	0.000000	0.000000	-0.118000	-0.004000	1.004000	192.000000	0.000000	0.000000	0.000000	0.000000	0.000000	0.000000	0.000000	0.000000	0.000000	1750150622.965797	0.000000
253.000000	3600.933087	-435.322575	-3865.711852	0.000000	0.000000	0.000000	0.000000	0.000000	-0.118000	-0.004000	1.004000	192.000000	0.000000	0.000000	0.000000	0.000000	0.000000	0.000000	0.000000	0.000000	0.000000	1750150622.969958	0.000000
254.000000	3593.266439	-432.863883	-3847.428125	0.000000	0.000000	0.000000	0.000000	0.000000	-0.116000	-0.004000	1.004000	192.000000	252.000000	96.000000	255.000000	224.000000	31.000000	96.000000	0.000000	0.000000	0.000000	1750150622.973852	0.000000
255.000000	3588.527869	-432.126276	-3836.945157	0.000000	0.000000	0.000000	0.000000	0.000000	-0.116000	-0.004000	1.004000	192.000000	0.000000	0.000000	0.000000	0.000000	0.000000	0.000000	0.000000	0.000000	0.000000	1750150622.977825	0.000000
0.000000	3591.299485	-437.602453	-3847.316366	0.000000	0.000000	0.000000	0.000000	0.000000	-0.116000	-0.004000	1.004000	192.000000	0.000000	0.000000	0.000000	0.000000	0.000000	0.000000	0.000000	0.000000	0.000000	1750150622.981748	0.000000
1.000000	3598.005008	-434.741430	-3861.621483	0.000000	0.000000	0.000000	0.000000	0.000000	-0.116000	-0.004000	1.004000	192.000000	0.000000	0.000000	0.000000	0.000000	0.000000	0.000000	0.000000	0.000000	0.000000	1750150622.985844	0.000000
2.000000	3600.597811	-431.790999	-3860.816820	0.000000	0.000000	0.000000	0.000000	0.000000	-0.116000	-0.004000	1.004000	192.000000	0.000000	0.000000	0.000000	0.000000	0.000000	0.000000	0.000000	0.000000	0.000000	1750150622.990867	0.000000
3.000000	3594.898116	-428.304127	-3843.427163	0.000000	0.000000	0.000000	0.000000	0.000000	-0.116000	-0.004000	1.004000	192.000000	0.000000	0.000000	0.000000	0.000000	0.000000	0.000000	0.000000	0.000000	0.000000	1750150622.993943	0.000000
4.000000	3591.031264	-427.879444	-3832.564215	0.000000	0.000000	0.000000	0.000000	0.000000	-0.116000	-0.004000	1.004000	192.000000	0.000000	0.000000	0.000000	0.000000	0.000000	0.000000	0.000000	0.000000	0.000000	1750150622.996869	0.000000
5.000000	3593.244087	-430.785171	-3843.471866	0.000000	0.000000	0.000000	0.000000	0.000000	-0.116000	-0.004000	1.004000	192.000000	0.000000	0.000000	0.000000	0.000000	0.000000	0.000000	0.000000	0.000000	0.000000	1750150623.001868	0.000000
6.000000	3599.614334	-437.580101	-3865.488334	0.000000	0.000000	0.000000	0.000000	0.000000	-0.116000	-0.004000	1.004000	192.000000	0.000000	0.000000	0.000000	0.000000	0.000000	0.000000	0.000000	0.000000	0.000000	1750150623.005810	0.000000
7.000000	3597.513270	-437.691860	-3868.595227	0.000000	0.000000	0.000000	0.000000	0.000000	-0.116000	-0.004000	1.004000	192.000000	0.000000	0.000000	0.000000	0.000000	0.000000	0.000000	0.000000	0.000000	0.000000	1750150623.009814	0.000000
8.000000	3591.612410	-434.361450	-3850.892645	0.000000	0.000000	0.000000	0.000000	0.000000	-0.112000	-0.010000	1.002000	192.000000	252.000000	128.000000	255.000000	176.000000	31.000000	80.000000	0.000000	0.000000	0.000000	1750150623.013774	0.000000
9.000000	3593.691122	-430.114619	-3839.560311	0.000000	0.000000	0.000000	0.000000	0.000000	-0.112000	-0.010000	1.002000	192.000000	0.000000	0.000000	0.000000	0.000000	0.000000	0.000000	0.000000	0.000000	0.000000	1750150623.018876	0.000000
10.000000	3594.115805	-433.176808	-3850.177389	0.000000	0.000000	0.000000	0.000000	0.000000	-0.112000	-0.010000	1.002000	192.000000	0.000000	0.000000	0.000000	0.000000	0.000000	0.000000	0.000000	0.000000	0.000000	1750150623.021898	0.000000
11.000000	3599.569631	-436.887197	-3866.494163	0.000000	0.000000	0.000000	0.000000	0.000000	-0.112000	-0.010000	1.002000	192.000000	0.000000	0.000000	0.000000	0.000000	0.000000	0.000000	0.000000	0.000000	0.000000	1750150623.024844	0.000000
12.000000	3598.764968	-434.204988	-3866.158887	0.000000	0.000000	0.000000	0.000000	0.000000	-0.112000	-0.010000	1.002000	192.000000	0.000000	0.000000	0.000000	0.000000	0.000000	0.000000	0.000000	0.000000	0.000000	1750150623.029897	0.000000
13.000000	3595.434558	-429.354659	-3847.897511	0.000000	0.000000	0.000000	0.000000	0.000000	-0.112000	-0.010000	1.002000	192.000000	0.000000	0.000000	0.000000	0.000000	0.000000	0.000000	0.000000	0.000000	0.000000	1750150623.033857	0.000000
14.000000	3594.205212	-425.286642	-3834.933500	0.000000	0.000000	0.000000	0.000000	0.000000	-0.112000	-0.010000	1.002000	192.000000	0.000000	0.000000	0.000000	0.000000	0.000000	0.000000	0.000000	0.000000	0.000000	1750150623.037927	0.000000
15.000000	3600.396645	-430.651060	-3850.825590	0.000000	0.000000	0.000000	0.000000	0.000000	-0.112000	-0.010000	1.002000	192.000000	0.000000	0.000000	0.000000	0.000000	0.000000	0.000000	0.000000	0.000000	0.000000	1750150623.042059	0.000000
16.000000	3602.341247	-438.027136	-3873.311445	0.000000	0.000000	0.000000	0.000000	0.000000	-0.112000	-0.010000	1.002000	192.000000	0.000000	0.000000	0.000000	0.000000	0.000000	0.000000	0.000000	0.000000	0.000000	1750150623.045950	0.000000
17.000000	3598.854375	-434.584967	-3871.568009	0.000000	0.000000	0.000000	0.000000	0.000000	-0.116000	-0.008000	0.998000	192.000000	252.000000	96.000000	255.000000	192.000000	31.000000	48.000000	0.000000	0.000000	0.000000	1750150623.050999	0.000000
18.000000	3595.434558	-430.919281	-3851.630253	0.000000	0.000000	0.000000	0.000000	0.000000	-0.116000	-0.008000	0.998000	192.000000	0.000000	0.000000	0.000000	0.000000	0.000000	0.000000	0.000000	0.000000	0.000000	1750150623.053962	0.000000
19.000000	3597.759139	-427.611223	-3840.543788	0.000000	0.000000	0.000000	0.000000	0.000000	-0.116000	-0.008000	0.998000	192.000000	0.000000	0.000000	0.000000	0.000000	0.000000	0.000000	0.000000	0.000000	0.000000	1750150623.056974	0.000000
20.000000	3601.558936	-430.449895	-3855.161828	0.000000	0.000000	0.000000	0.000000	0.000000	-0.116000	-0.008000	0.998000	192.000000	0.000000	0.000000	0.000000	0.000000	0.000000	0.000000	0.000000	0.000000	0.000000	1750150623.061865	0.000000
21.000000	3605.694009	-433.601491	-3871.053919	0.000000	0.000000	0.000000	0.000000	0.000000	-0.116000	-0.008000	0.998000	192.000000	0.000000	0.000000	0.000000	0.000000	0.000000	0.000000	0.000000	0.000000	0.000000	1750150623.065905	0.000000
22.000000	3604.956401	-433.489732	-3866.650625	0.000000	0.000000	0.000000	0.000000	0.000000	-0.116000	-0.008000	0.998000	192.000000	0.000000	0.000000	0.000000	0.000000	0.000000	0.000000	0.000000	0.000000	0.000000	1750150623.070140	0.000000
23.000000	3601.290715	-429.488770	-3853.150171	0.000000	0.000000	0.000000	0.000000	0.000000	-0.116000	-0.008000	0.998000	192.000000	0.000000	0.000000	0.000000	0.000000	0.000000	0.000000	0.000000	0.000000	0.000000	1750150623.074010	0.000000
24.000000	3599.524927	-422.045639	-3843.896549	0.000000	0.000000	0.000000	0.000000	0.000000	-0.116000	-0.008000	0.998000	192.000000	0.000000	0.000000	0.000000	0.000000	0.000000	0.000000	0.000000	0.000000	0.000000	1750150623.077965	0.000000
25.000000	3602.117729	-425.733677	-3853.306634	0.000000	0.000000	0.000000	0.000000	0.000000	-0.116000	-0.008000	0.998000	192.000000	0.000000	0.000000	0.000000	0.000000	0.000000	0.000000	0.000000	0.000000	0.000000	1750150623.080991	0.000000
26.000000	3604.688180	-432.305090	-3868.706986	0.000000	0.000000	0.000000	0.000000	0.000000	-0.116000	-0.008000	0.998000	192.000000	0.000000	0.000000	0.000000	0.000000	0.000000	0.000000	0.000000	0.000000	0.000000	1750150623.084933	0.000000
27.000000	3604.621125	-431.433371	-3868.394061	0.000000	0.000000	0.000000	0.000000	0.000000	-0.118000	-0.008000	1.002000	192.000000	252.000000	80.000000	255.000000	192.000000	31.000000	80.000000	0.000000	0.000000	0.000000	1750150623.090102	0.000000
28.000000	3600.843680	-427.566520	-3853.373689	0.000000	0.000000	0.000000	0.000000	0.000000	-0.118000	-0.008000	1.002000	192.000000	0.000000	0.000000	0.000000	0.000000	0.000000	0.000000	0.000000	0.000000	0.000000	1750150623.094067	0.000000
29.000000	3598.899078	-423.185578	-3843.561273	0.000000	0.000000	0.000000	0.000000	0.000000	-0.118000	-0.008000	1.002000	192.000000	0.000000	0.000000	0.000000	0.000000	0.000000	0.000000	0.000000	0.000000	0.000000	1750150623.098065	0.000000
30.000000	3598.809671	-424.772552	-3854.580683	0.000000	0.000000	0.000000	0.000000	0.000000	-0.118000	-0.008000	1.002000	192.000000	0.000000	0.000000	0.000000	0.000000	0.000000	0.000000	0.000000	0.000000	0.000000	1750150623.102097	0.000000
31.000000	3604.062331	-430.896930	-3870.562180	0.000000	0.000000	0.000000	0.000000	0.000000	-0.118000	-0.008000	1.002000	192.000000	0.000000	0.000000	0.000000	0.000000	0.000000	0.000000	0.000000	0.000000	0.000000	1750150623.105965	0.000000
32.000000	3605.761064	-430.472246	-3872.685596	0.000000	0.000000	0.000000	0.000000	0.000000	-0.118000	-0.008000	1.002000	192.000000	0.000000	0.000000	0.000000	0.000000	0.000000	0.000000	0.000000	0.000000	0.000000	1750150623.109081	0.000000
33.000000	3602.855337	-423.610261	-3856.212360	0.000000	0.000000	0.000000	0.000000	0.000000	-0.118000	-0.008000	1.002000	192.000000	0.000000	0.000000	0.000000	0.000000	0.000000	0.000000	0.000000	0.000000	0.000000	1750150623.113007	0.000000
34.000000	3600.843680	-424.034944	-3844.969433	0.000000	0.000000	0.000000	0.000000	0.000000	-0.118000	-0.008000	1.002000	192.000000	0.000000	0.000000	0.000000	0.000000	0.000000	0.000000	0.000000	0.000000	0.000000	1750150623.118069	0.000000
35.000000	3603.727055	-430.695764	-3853.776020	0.000000	0.000000	0.000000	0.000000	0.000000	-0.118000	-0.008000	1.002000	192.000000	0.000000	0.000000	0.000000	0.000000	0.000000	0.000000	0.000000	0.000000	0.000000	1750150623.122082	0.000000
36.000000	3606.364561	-432.662717	-3868.639930	0.000000	0.000000	0.000000	0.000000	0.000000	-0.118000	-0.008000	1.002000	192.000000	0.000000	0.000000	0.000000	0.000000	0.000000	0.000000	0.000000	0.000000	0.000000	1750150623.126099	0.000000
37.000000	3605.872823	-426.560691	-3867.567047	0.000000	0.000000	0.000000	0.000000	0.000000	-0.114000	-0.002000	1.002000	192.000000	252.000000	112.000000	255.000000	240.000000	31.000000	80.000000	0.000000	0.000000	0.000000	1750150623.130092	0.000000
38.000000	3603.414131	-423.878482	-3855.005366	0.000000	0.000000	0.000000	0.000000	0.000000	-0.114000	-0.002000	1.002000	192.000000	0.000000	0.000000	0.000000	0.000000	0.000000	0.000000	0.000000	0.000000	0.000000	1750150623.133097	0.000000
39.000000	3598.876726	-426.001898	-3846.355241	0.000000	0.000000	0.000000	0.000000	0.000000	-0.114000	-0.002000	1.002000	192.000000	0.000000	0.000000	0.000000	0.000000	0.000000	0.000000	0.000000	0.000000	0.000000	1750150623.137134	0.000000
40.000000	3602.184785	-427.946499	-3853.507799	0.000000	0.000000	0.000000	0.000000	0.000000	-0.114000	-0.002000	1.002000	192.000000	0.000000	0.000000	0.000000	0.000000	0.000000	0.000000	0.000000	0.000000	0.000000	1750150623.141205	0.000000
41.000000	3606.319857	-432.036869	-3870.472773	0.000000	0.000000	0.000000	0.000000	0.000000	-0.114000	-0.002000	1.002000	192.000000	0.000000	0.000000	0.000000	0.000000	0.000000	0.000000	0.000000	0.000000	0.000000	1750150623.147138	0.000000
42.000000	3605.358732	-430.427543	-3871.344491	0.000000	0.000000	0.000000	0.000000	0.000000	-0.114000	-0.002000	1.002000	192.000000	0.000000	0.000000	0.000000	0.000000	0.000000	0.000000	0.000000	0.000000	0.000000	1750150623.150150	0.000000
43.000000	3603.570593	-425.398400	-3854.088945	0.000000	0.000000	0.000000	0.000000	0.000000	-0.114000	-0.002000	1.002000	192.000000	0.000000	0.000000	0.000000	0.000000	0.000000	0.000000	0.000000	0.000000	0.000000	1750150623.154135	0.000000
44.000000	3598.832023	-421.531549	-3843.091886	0.000000	0.000000	0.000000	0.000000	0.000000	-0.114000	-0.002000	1.002000	192.000000	0.000000	0.000000	0.000000	0.000000	0.000000	0.000000	0.000000	0.000000	0.000000	1750150623.158197	0.000000
45.000000	3598.139119	-423.520854	-3851.339680	0.000000	0.000000	0.000000	0.000000	0.000000	-0.114000	-0.002000	1.002000	192.000000	0.000000	0.000000	0.000000	0.000000	0.000000	0.000000	0.000000	0.000000	0.000000	1750150623.161147	0.000000
46.000000	3607.884480	-429.868749	-3867.947026	0.000000	0.000000	0.000000	0.000000	0.000000	-0.114000	-0.002000	1.002000	192.000000	0.000000	0.000000	0.000000	0.000000	0.000000	0.000000	0.000000	0.000000	0.000000	1750150623.165152	0.000000
47.000000	3608.666791	-431.433371	-3871.232733	0.000000	0.000000	0.000000	0.000000	0.000000	-0.114000	-0.006000	1.012000	192.000000	252.000000	112.000000	255.000000	208.000000	31.000000	160.000000	0.000000	0.000000	0.000000	1750150623.169219	0.000000
48.000000	3601.849509	-427.544168	-3857.374651	0.000000	0.000000	0.000000	0.000000	0.000000	-0.114000	-0.006000	1.012000	192.000000	0.000000	0.000000	0.000000	0.000000	0.000000	0.000000	0.000000	0.000000	0.000000	1750150623.173248	0.000000
49.000000	3595.658075	-422.202101	-3843.538921	0.000000	0.000000	0.000000	0.000000	0.000000	-0.114000	-0.006000	1.012000	192.000000	0.000000	0.000000	0.000000	0.000000	0.000000	0.000000	0.000000	0.000000	0.000000	1750150623.178148	0.000000
50.000000	3597.647381	-425.398400	-3850.110334	0.000000	0.000000	0.000000	0.000000	0.000000	-0.114000	-0.006000	1.012000	192.000000	0.000000	0.000000	0.000000	0.000000	0.000000	0.000000	0.000000	0.000000	0.000000	1750150623.182271	0.000000
51.000000	3602.788282	-428.237072	-3870.003387	0.000000	0.000000	0.000000	0.000000	0.000000	-0.114000	-0.006000	1.012000	192.000000	0.000000	0.000000	0.000000	0.000000	0.000000	0.000000	0.000000	0.000000	0.000000	1750150623.186304	0.000000
52.000000	3606.141043	-426.292470	-3874.786660	0.000000	0.000000	0.000000	0.000000	0.000000	-0.114000	-0.006000	1.012000	192.000000	0.000000	0.000000	0.000000	0.000000	0.000000	0.000000	0.000000	0.000000	0.000000	1750150623.189268	0.000000
53.000000	3602.631820	-421.375086	-3859.162791	0.000000	0.000000	0.000000	0.000000	0.000000	-0.114000	-0.006000	1.012000	192.000000	0.000000	0.000000	0.000000	0.000000	0.000000	0.000000	0.000000	0.000000	0.000000	1750150623.193202	0.000000
54.000000	3598.653209	-421.799770	-3845.975261	0.000000	0.000000	0.000000	0.000000	0.000000	-0.114000	-0.006000	1.012000	192.000000	0.000000	0.000000	0.000000	0.000000	0.000000	0.000000	0.000000	0.000000	0.000000	1750150623.197128	0.000000
55.000000	3602.520061	-423.185578	-3856.190009	0.000000	0.000000	0.000000	0.000000	0.000000	-0.114000	-0.006000	1.012000	192.000000	0.000000	0.000000	0.000000	0.000000	0.000000	0.000000	0.000000	0.000000	0.000000	1750150623.201205	0.000000
56.000000	3605.068160	-423.029116	-3874.920771	0.000000	0.000000	0.000000	0.000000	0.000000	-0.114000	-0.006000	1.012000	192.000000	0.000000	0.000000	0.000000	0.000000	0.000000	0.000000	0.000000	0.000000	0.000000	1750150623.206304	0.000000
57.000000	3607.325686	-424.549034	-3875.658378	0.000000	0.000000	0.000000	0.000000	0.000000	-0.114000	-0.006000	1.006000	192.000000	252.000000	112.000000	255.000000	208.000000	31.000000	112.000000	0.000000	0.000000	0.000000	1750150623.210291	0.000000
58.000000	3599.301410	-422.135046	-3855.698270	0.000000	0.000000	0.000000	0.000000	0.000000	-0.114000	-0.006000	1.006000	192.000000	0.000000	0.000000	0.000000	0.000000	0.000000	0.000000	0.000000	0.000000	0.000000	1750150623.214158	0.000000
59.000000	3596.350979	-425.599566	-3840.610843	0.000000	0.000000	0.000000	0.000000	0.000000	-0.114000	-0.006000	1.006000	192.000000	0.000000	0.000000	0.000000	0.000000	0.000000	0.000000	0.000000	0.000000	0.000000	1750150623.218248	0.000000
60.000000	3606.029285	-423.297336	-3852.591378	0.000000	0.000000	0.000000	0.000000	0.000000	-0.114000	-0.006000	1.006000	192.000000	0.000000	0.000000	0.000000	0.000000	0.000000	0.000000	0.000000	0.000000	0.000000	1750150623.221286	0.000000
61.000000	3608.867956	-426.963023	-3875.613675	0.000000	0.000000	0.000000	0.000000	0.000000	-0.114000	-0.006000	1.006000	192.000000	0.000000	0.000000	0.000000	0.000000	0.000000	0.000000	0.000000	0.000000	0.000000	1750150623.225286	0.000000
62.000000	3607.593907	-430.025212	-3871.411547	0.000000	0.000000	0.000000	0.000000	0.000000	-0.114000	-0.006000	1.006000	192.000000	0.000000	0.000000	0.000000	0.000000	0.000000	0.000000	0.000000	0.000000	0.000000	1750150623.229230	0.000000
63.000000	3606.968058	-423.699668	-3855.407698	0.000000	0.000000	0.000000	0.000000	0.000000	-0.114000	-0.006000	1.006000	192.000000	0.000000	0.000000	0.000000	0.000000	0.000000	0.000000	0.000000	0.000000	0.000000	1750150623.233290	0.000000
64.000000	3603.190613	-420.190444	-3845.863503	0.000000	0.000000	0.000000	0.000000	0.000000	-0.114000	-0.006000	1.006000	192.000000	0.000000	0.000000	0.000000	0.000000	0.000000	0.000000	0.000000	0.000000	0.000000	1750150623.238307	0.000000
65.000000	3603.056503	-425.040773	-3854.267759	0.000000	0.000000	0.000000	0.000000	0.000000	-0.114000	-0.006000	1.006000	192.000000	0.000000	0.000000	0.000000	0.000000	0.000000	0.000000	0.000000	0.000000	0.000000	1750150623.242348	0.000000
66.000000	3601.693046	-429.980508	-3868.841096	0.000000	0.000000	0.000000	0.000000	0.000000	-0.114000	-0.006000	1.006000	192.000000	0.000000	0.000000	0.000000	0.000000	0.000000	0.000000	0.000000	0.000000	0.000000	1750150623.245269	0.000000
67.000000	3598.541450	-432.618014	-3869.981035	0.000000	0.000000	0.000000	0.000000	0.000000	-0.118000	-0.004000	1.012000	192.000000	252.000000	80.000000	255.000000	224.000000	31.000000	160.000000	0.000000	0.000000	0.000000	1750150623.249352	0.000000
68.000000	3601.670695	-425.621918	-3853.843075	0.000000	0.000000	0.000000	0.000000	0.000000	-0.118000	-0.004000	1.012000	192.000000	0.000000	0.000000	0.000000	0.000000	0.000000	0.000000	0.000000	0.000000	0.000000	1750150623.253284	0.000000
69.000000	3605.872823	-418.469360	-3844.343584	0.000000	0.000000	0.000000	0.000000	0.000000	-0.118000	-0.004000	1.012000	192.000000	0.000000	0.000000	0.000000	0.000000	0.000000	0.000000	0.000000	0.000000	0.000000	1750150623.257240	0.000000
70.000000	3606.990410	-421.129217	-3856.726451	0.000000	0.000000	0.000000	0.000000	0.000000	-0.118000	-0.004000	1.012000	192.000000	0.000000	0.000000	0.000000	0.000000	0.000000	0.000000	0.000000	0.000000	0.000000	1750150623.261260	0.000000
71.000000	3609.985543	-429.086438	-3872.551486	0.000000	0.000000	0.000000	0.000000	0.000000	-0.118000	-0.004000	1.012000	192.000000	0.000000	0.000000	0.000000	0.000000	0.000000	0.000000	0.000000	0.000000	0.000000	1750150623.266271	0.000000
72.000000	3608.778549	-427.633575	-3872.797355	0.000000	0.000000	0.000000	0.000000	0.000000	-0.118000	-0.004000	1.012000	192.000000	0.000000	0.000000	0.000000	0.000000	0.000000	0.000000	0.000000	0.000000	0.000000	1750150623.270297	0.000000
73.000000	3602.743578	-422.313860	-3854.580683	0.000000	0.000000	0.000000	0.000000	0.000000	-0.118000	-0.004000	1.012000	192.000000	0.000000	0.000000	0.000000	0.000000	0.000000	0.000000	0.000000	0.000000	0.000000	1750150623.273338	0.000000
74.000000	3600.262535	-423.342040	-3842.823665	0.000000	0.000000	0.000000	0.000000	0.000000	-0.118000	-0.004000	1.012000	192.000000	0.000000	0.000000	0.000000	0.000000	0.000000	0.000000	0.000000	0.000000	0.000000	1750150623.277284	0.000000
75.000000	3600.776625	-424.280813	-3852.390212	0.000000	0.000000	0.000000	0.000000	0.000000	-0.118000	-0.004000	1.012000	192.000000	0.000000	0.000000	0.000000	0.000000	0.000000	0.000000	0.000000	0.000000	0.000000	1750150623.281302	0.000000
76.000000	3599.793148	-428.572348	-3866.449459	0.000000	0.000000	0.000000	0.000000	0.000000	-0.116000	-0.004000	1.012000	192.000000	252.000000	96.000000	255.000000	224.000000	31.000000	160.000000	0.000000	0.000000	0.000000	1750150623.285436	0.000000
77.000000	3596.038055	-428.549996	-3868.617579	0.000000	0.000000	0.000000	0.000000	0.000000	-0.116000	-0.004000	1.012000	192.000000	0.000000	0.000000	0.000000	0.000000	0.000000	0.000000	0.000000	0.000000	0.000000	1750150623.289523	0.000000
78.000000	3603.727055	-426.337174	-3855.810029	0.000000	0.000000	0.000000	0.000000	0.000000	-0.116000	-0.004000	1.012000	192.000000	0.000000	0.000000	0.000000	0.000000	0.000000	0.000000	0.000000	0.000000	0.000000	1750150623.294454	0.000000
79.000000	3608.286811	-420.033982	-3849.842113	0.000000	0.000000	0.000000	0.000000	0.000000	-0.116000	-0.004000	1.012000	192.000000	0.000000	0.000000	0.000000	0.000000	0.000000	0.000000	0.000000	0.000000	0.000000	1750150623.298412	0.000000
80.000000	3611.103131	-416.077723	-3859.833343	0.000000	0.000000	0.000000	0.000000	0.000000	-0.116000	-0.004000	1.012000	192.000000	0.000000	0.000000	0.000000	0.000000	0.000000	0.000000	0.000000	0.000000	0.000000	1750150623.301509	0.000000
81.000000	3613.070084	-419.609299	-3874.294922	0.000000	0.000000	0.000000	0.000000	0.000000	-0.116000	-0.004000	1.012000	192.000000	0.000000	0.000000	0.000000	0.000000	0.000000	0.000000	0.000000	0.000000	0.000000	1750150623.305335	0.000000
82.000000	3610.454930	-422.135046	-3872.484430	0.000000	0.000000	0.000000	0.000000	0.000000	-0.116000	-0.004000	1.012000	192.000000	0.000000	0.000000	0.000000	0.000000	0.000000	0.000000	0.000000	0.000000	0.000000	1750150623.309430	0.000000
83.000000	3605.135215	-418.424656	-3855.340642	0.000000	0.000000	0.000000	0.000000	0.000000	-0.116000	-0.004000	1.012000	192.000000	0.000000	0.000000	0.000000	0.000000	0.000000	0.000000	0.000000	0.000000	0.000000	1750150623.315446	0.000000
84.000000	3599.659038	-416.904738	-3841.728430	0.000000	0.000000	0.000000	0.000000	0.000000	-0.116000	-0.004000	1.012000	192.000000	0.000000	0.000000	0.000000	0.000000	0.000000	0.000000	0.000000	0.000000	0.000000	1750150623.318399	0.000000
85.000000	3597.759139	-421.643307	-3847.986918	0.000000	0.000000	0.000000	0.000000	0.000000	-0.116000	-0.004000	1.012000	192.000000	0.000000	0.000000	0.000000	0.000000	0.000000	0.000000	0.000000	0.000000	0.000000	1750150623.321382	0.000000
86.000000	3601.625991	-426.404229	-3868.036433	0.000000	0.000000	0.000000	0.000000	0.000000	-0.114000	-0.006000	1.008000	192.000000	252.000000	112.000000	255.000000	208.000000	31.000000	128.000000	0.000000	0.000000	0.000000	1750150623.326429	0.000000
87.000000	3596.820366	-426.113656	-3867.947026	0.000000	0.000000	0.000000	0.000000	0.000000	-0.114000	-0.006000	1.008000	192.000000	0.000000	0.000000	0.000000	0.000000	0.000000	0.000000	0.000000	0.000000	0.000000	1750150623.329490	0.000000
88.000000	3599.077892	-425.510159	-3848.880988	0.000000	0.000000	0.000000	0.000000	0.000000	-0.114000	-0.006000	1.008000	192.000000	0.000000	0.000000	0.000000	0.000000	0.000000	0.000000	0.000000	0.000000	0.000000	1750150623.333435	0.000000
89.000000	3605.761064	-421.308031	-3840.633195	0.000000	0.000000	0.000000	0.000000	0.000000	-0.114000	-0.006000	1.008000	192.000000	0.000000	0.000000	0.000000	0.000000	0.000000	0.000000	0.000000	0.000000	0.000000	1750150623.337485	0.000000
90.000000	3614.053561	-418.670525	-3849.775058	0.000000	0.000000	0.000000	0.000000	0.000000	-0.114000	-0.006000	1.008000	192.000000	0.000000	0.000000	0.000000	0.000000	0.000000	0.000000	0.000000	0.000000	0.000000	1750150623.341554	0.000000
91.000000	3613.584174	-423.029116	-3867.276474	0.000000	0.000000	0.000000	0.000000	0.000000	-0.114000	-0.006000	1.008000	192.000000	0.000000	0.000000	0.000000	0.000000	0.000000	0.000000	0.000000	0.000000	0.000000	1750150623.345523	0.000000
92.000000	3610.276116	-425.957194	-3868.908151	0.000000	0.000000	0.000000	0.000000	0.000000	-0.114000	-0.006000	1.008000	192.000000	0.000000	0.000000	0.000000	0.000000	0.000000	0.000000	0.000000	0.000000	0.000000	1750150623.349535	0.000000
93.000000	3606.163395	-420.816293	-3852.747840	0.000000	0.000000	0.000000	0.000000	0.000000	-0.114000	-0.006000	1.008000	192.000000	0.000000	0.000000	0.000000	0.000000	0.000000	0.000000	0.000000	0.000000	0.000000	1750150623.354530	0.000000
94.000000	3603.056503	-417.731752	-3841.080229	0.000000	0.000000	0.000000	0.000000	0.000000	-0.114000	-0.006000	1.008000	192.000000	0.000000	0.000000	0.000000	0.000000	0.000000	0.000000	0.000000	0.000000	0.000000	1750150623.357509	0.000000
95.000000	3601.827157	-424.236110	-3849.886817	0.000000	0.000000	0.000000	0.000000	0.000000	-0.114000	-0.006000	1.008000	192.000000	0.000000	0.000000	0.000000	0.000000	0.000000	0.000000	0.000000	0.000000	0.000000	1750150623.361498	0.000000
96.000000	3601.491881	-429.019383	-3866.360052	0.000000	0.000000	0.000000	0.000000	0.000000	-0.118000	-0.008000	1.010000	192.000000	252.000000	80.000000	255.000000	192.000000	31.000000	144.000000	0.000000	0.000000	0.000000	1750150623.365461	0.000000
97.000000	3602.832985	-428.661755	-3868.058785	0.000000	0.000000	0.000000	0.000000	0.000000	-0.118000	-0.008000	1.010000	192.000000	0.000000	0.000000	0.000000	0.000000	0.000000	0.000000	0.000000	0.000000	0.000000	1750150623.369492	0.000000
98.000000	3605.738712	-420.704534	-3856.346471	0.000000	0.000000	0.000000	0.000000	0.000000	-0.118000	-0.008000	1.010000	192.000000	0.000000	0.000000	0.000000	0.000000	0.000000	0.000000	0.000000	0.000000	0.000000	1750150623.373580	0.000000
99.000000	3599.279058	-417.999973	-3846.109372	0.000000	0.000000	0.000000	0.000000	0.000000	-0.118000	-0.008000	1.010000	192.000000	0.000000	0.000000	0.000000	0.000000	0.000000	0.000000	0.000000	0.000000	0.000000	1750150623.377638	0.000000
100.000000	3594.227564	-423.096171	-3851.138514	0.000000	0.000000	0.000000	0.000000	0.000000	-0.118000	-0.008000	1.010000	192.000000	0.000000	0.000000	0.000000	0.000000	0.000000	0.000000	0.000000	0.000000	0.000000	1750150623.382537	0.000000
101.000000	3605.828119	-427.633575	-3871.478602	0.000000	0.000000	0.000000	0.000000	0.000000	-0.118000	-0.008000	1.010000	192.000000	0.000000	0.000000	0.000000	0.000000	0.000000	0.000000	0.000000	0.000000	0.000000	1750150623.385554	0.000000
102.000000	3610.454930	-425.644270	-3877.223000	0.000000	0.000000	0.000000	0.000000	0.000000	-0.118000	-0.008000	1.010000	192.000000	0.000000	0.000000	0.000000	0.000000	0.000000	0.000000	0.000000	0.000000	0.000000	1750150623.388513	0.000000
103.000000	3604.308200	-417.955270	-3861.330910	0.000000	0.000000	0.000000	0.000000	0.000000	-0.118000	-0.008000	1.010000	192.000000	0.000000	0.000000	0.000000	0.000000	0.000000	0.000000	0.000000	0.000000	0.000000	1750150623.393553	0.000000
104.000000	3600.553107	-413.149645	-3847.115200	0.000000	0.000000	0.000000	0.000000	0.000000	-0.118000	-0.008000	1.010000	192.000000	0.000000	0.000000	0.000000	0.000000	0.000000	0.000000	0.000000	0.000000	0.000000	1750150623.397641	0.000000
105.000000	3599.189651	-419.341078	-3851.585549	0.000000	0.000000	0.000000	0.000000	0.000000	-0.118000	-0.008000	1.010000	192.000000	0.000000	0.000000	0.000000	0.000000	0.000000	0.000000	0.000000	0.000000	0.000000	1750150623.401646	0.000000
106.000000	3600.620163	-424.549034	-3866.672977	0.000000	0.000000	0.000000	0.000000	0.000000	-0.118000	-0.006000	1.004000	192.000000	252.000000	80.000000	255.000000	208.000000	31.000000	96.000000	0.000000	0.000000	0.000000	1750150623.405522	0.000000
107.000000	3603.101206	-423.140874	-3869.668111	0.000000	0.000000	0.000000	0.000000	0.000000	-0.118000	-0.006000	1.004000	192.000000	0.000000	0.000000	0.000000	0.000000	0.000000	0.000000	0.000000	0.000000	0.000000	1750150623.410599	0.000000
108.000000	3599.882555	-419.698706	-3856.033546	0.000000	0.000000	0.000000	0.000000	0.000000	-0.118000	-0.006000	1.004000	192.000000	0.000000	0.000000	0.000000	0.000000	0.000000	0.000000	0.000000	0.000000	0.000000	1750150623.413571	0.000000
109.000000	3598.429692	-418.223491	-3844.187122	0.000000	0.000000	0.000000	0.000000	0.000000	-0.118000	-0.006000	1.004000	192.000000	0.000000	0.000000	0.000000	0.000000	0.000000	0.000000	0.000000	0.000000	0.000000	1750150623.417569	0.000000
110.000000	3596.619200	-421.911528	-3848.925692	0.000000	0.000000	0.000000	0.000000	0.000000	-0.118000	-0.006000	1.004000	192.000000	0.000000	0.000000	0.000000	0.000000	0.000000	0.000000	0.000000	0.000000	0.000000	1750150623.421639	0.000000
111.000000	3599.994314	-425.443104	-3864.951892	0.000000	0.000000	0.000000	0.000000	0.000000	-0.118000	-0.006000	1.004000	192.000000	0.000000	0.000000	0.000000	0.000000	0.000000	0.000000	0.000000	0.000000	0.000000	1750150623.425708	0.000000
112.000000	3604.755235	-419.922223	-3870.226904	0.000000	0.000000	0.000000	0.000000	0.000000	-0.118000	-0.006000	1.004000	192.000000	0.000000	0.000000	0.000000	0.000000	0.000000	0.000000	0.000000	0.000000	0.000000	1750150623.429687	0.000000
113.000000	3602.207136	-417.552938	-3854.580683	0.000000	0.000000	0.000000	0.000000	0.000000	-0.118000	-0.006000	1.004000	192.000000	0.000000	0.000000	0.000000	0.000000	0.000000	0.000000	0.000000	0.000000	0.000000	1750150623.433670	0.000000
114.000000	3594.384026	-415.049543	-3840.007346	0.000000	0.000000	0.000000	0.000000	0.000000	-0.118000	-0.006000	1.004000	192.000000	0.000000	0.000000	0.000000	0.000000	0.000000	0.000000	0.000000	0.000000	0.000000	1750150623.437660	0.000000
115.000000	3595.121633	-419.139912	-3849.730355	0.000000	0.000000	0.000000	0.000000	0.000000	-0.118000	-0.006000	1.004000	192.000000	0.000000	0.000000	0.000000	0.000000	0.000000	0.000000	0.000000	0.000000	0.000000	1750150623.441698	0.000000
116.000000	3601.827157	-421.978584	-3868.684634	0.000000	0.000000	0.000000	0.000000	0.000000	-0.120000	-0.006000	1.002000	192.000000	252.000000	64.000000	255.000000	208.000000	31.000000	80.000000	0.000000	0.000000	0.000000	1750150623.444812	0.000000
117.000000	3601.961267	-422.827950	-3873.132631	0.000000	0.000000	0.000000	0.000000	0.000000	-0.120000	-0.006000	1.002000	192.000000	0.000000	0.000000	0.000000	0.000000	0.000000	0.000000	0.000000	0.000000	0.000000	1750150623.449749	0.000000
118.000000	3598.519099	-416.770627	-3856.324119	0.000000	0.000000	0.000000	0.000000	0.000000	-0.120000	-0.006000	1.002000	192.000000	0.000000	0.000000	0.000000	0.000000	0.000000	0.000000	0.000000	0.000000	0.000000	1750150623.453921	0.000000
119.000000	3594.898116	-415.295412	-3843.918901	0.000000	0.000000	0.000000	0.000000	0.000000	-0.120000	-0.006000	1.002000	192.000000	0.000000	0.000000	0.000000	0.000000	0.000000	0.000000	0.000000	0.000000	0.000000	1750150623.457738	0.000000
120.000000	3600.195479	-414.982488	-3851.049107	0.000000	0.000000	0.000000	0.000000	0.000000	-0.120000	-0.006000	1.002000	192.000000	0.000000	0.000000	0.000000	0.000000	0.000000	0.000000	0.000000	0.000000	0.000000	1750150623.461666	0.000000
121.000000	3604.062331	-416.725924	-3869.355186	0.000000	0.000000	0.000000	0.000000	0.000000	-0.120000	-0.006000	1.002000	192.000000	0.000000	0.000000	0.000000	0.000000	0.000000	0.000000	0.000000	0.000000	0.000000	1750150623.465763	0.000000
122.000000	3601.693046	-418.290546	-3867.768212	0.000000	0.000000	0.000000	0.000000	0.000000	-0.120000	-0.006000	1.002000	192.000000	0.000000	0.000000	0.000000	0.000000	0.000000	0.000000	0.000000	0.000000	0.000000	1750150623.470765	0.000000
123.000000	3599.480224	-415.787150	-3851.183218	0.000000	0.000000	0.000000	0.000000	0.000000	-0.120000	-0.006000	1.002000	192.000000	0.000000	0.000000	0.000000	0.000000	0.000000	0.000000	0.000000	0.000000	0.000000	1750150623.473764	0.000000
124.000000	3596.127462	-414.401342	-3841.840189	0.000000	0.000000	0.000000	0.000000	0.000000	-0.120000	-0.006000	1.002000	192.000000	0.000000	0.000000	0.000000	0.000000	0.000000	0.000000	0.000000	0.000000	0.000000	1750150623.476757	0.000000
125.000000	3599.547279	-417.128255	-3851.898474	0.000000	0.000000	0.000000	0.000000	0.000000	-0.120000	-0.006000	1.002000	192.000000	0.000000	0.000000	0.000000	0.000000	0.000000	0.000000	0.000000	0.000000	0.000000	1750150623.481746	0.000000
126.000000	3600.486052	-421.598604	-3869.623407	0.000000	0.000000	0.000000	0.000000	0.000000	-0.118000	-0.004000	1.008000	192.000000	252.000000	80.000000	255.000000	224.000000	31.000000	128.000000	0.000000	0.000000	0.000000	1750150623.485819	0.000000
127.000000	3602.229488	-421.397438	-3871.299788	0.000000	0.000000	0.000000	0.000000	0.000000	-0.118000	-0.004000	1.008000	192.000000	0.000000	0.000000	0.000000	0.000000	0.000000	0.000000	0.000000	0.000000	0.000000	1750150623.489784	0.000000
128.000000	3600.351942	-414.446046	-3854.714794	0.000000	0.000000	0.000000	0.000000	0.000000	-0.118000	-0.004000	1.008000	192.000000	0.000000	0.000000	0.000000	0.000000	0.000000	0.000000	0.000000	0.000000	0.000000	1750150623.493778	0.000000
129.000000	3598.697913	-410.243918	-3842.063706	0.000000	0.000000	0.000000	0.000000	0.000000	-0.118000	-0.004000	1.008000	192.000000	0.000000	0.000000	0.000000	0.000000	0.000000	0.000000	0.000000	0.000000	0.000000	1750150623.497914	0.000000
130.000000	3601.246011	-416.345944	-3851.563198	0.000000	0.000000	0.000000	0.000000	0.000000	-0.118000	-0.004000	1.008000	192.000000	0.000000	0.000000	0.000000	0.000000	0.000000	0.000000	0.000000	0.000000	0.000000	1750150623.500797	0.000000
131.000000	3603.078854	-421.710363	-3867.477640	0.000000	0.000000	0.000000	0.000000	0.000000	-0.118000	-0.004000	1.008000	192.000000	0.000000	0.000000	0.000000	0.000000	0.000000	0.000000	0.000000	0.000000	0.000000	1750150623.505877	0.000000
132.000000	3600.776625	-420.235148	-3869.466945	0.000000	0.000000	0.000000	0.000000	0.000000	-0.118000	-0.004000	1.008000	192.000000	0.000000	0.000000	0.000000	0.000000	0.000000	0.000000	0.000000	0.000000	0.000000	1750150623.509887	0.000000
133.000000	3600.709570	-413.931956	-3855.318291	0.000000	0.000000	0.000000	0.000000	0.000000	-0.118000	-0.004000	1.008000	192.000000	0.000000	0.000000	0.000000	0.000000	0.000000	0.000000	0.000000	0.000000	0.000000	1750150623.513841	0.000000
134.000000	3601.715398	-410.132159	-3844.187122	0.000000	0.000000	0.000000	0.000000	0.000000	-0.118000	-0.004000	1.008000	192.000000	0.000000	0.000000	0.000000	0.000000	0.000000	0.000000	0.000000	0.000000	0.000000	1750150623.517771	0.000000
135.000000	3601.782453	-415.116598	-3852.278453	0.000000	0.000000	0.000000	0.000000	0.000000	-0.118000	-0.004000	1.008000	192.000000	0.000000	0.000000	0.000000	0.000000	0.000000	0.000000	0.000000	0.000000	0.000000	1750150623.521812	0.000000
136.000000	3602.430654	-419.117560	-3870.450422	0.000000	0.000000	0.000000	0.000000	0.000000	-0.112000	-0.004000	1.002000	192.000000	252.000000	128.000000	255.000000	224.000000	31.000000	80.000000	0.000000	0.000000	0.000000	1750150623.525808	0.000000
137.000000	3605.626953	-414.334287	-3876.977131	0.000000	0.000000	0.000000	0.000000	0.000000	-0.112000	-0.004000	1.002000	192.000000	0.000000	0.000000	0.000000	0.000000	0.000000	0.000000	0.000000	0.000000	0.000000	1750150623.528876	0.000000
138.000000	3600.396645	-411.361505	-3863.297863	0.000000	0.000000	0.000000	0.000000	0.000000	-0.112000	-0.004000	1.002000	192.000000	0.000000	0.000000	0.000000	0.000000	0.000000	0.000000	0.000000	0.000000	0.000000	1750150623.532820	0.000000
139.000000	3596.641552	-410.422732	-3849.775058	0.000000	0.000000	0.000000	0.000000	0.000000	-0.112000	-0.004000	1.002000	192.000000	0.000000	0.000000	0.000000	0.000000	0.000000	0.000000	0.000000	0.000000	0.000000	1750150623.537842	0.000000
140.000000	3604.978753	-412.635554	-3854.133648	0.000000	0.000000	0.000000	0.000000	0.000000	-0.112000	-0.004000	1.002000	192.000000	0.000000	0.000000	0.000000	0.000000	0.000000	0.000000	0.000000	0.000000	0.000000	1750150623.541853	0.000000
141.000000	3607.258631	-418.290546	-3872.596189	0.000000	0.000000	0.000000	0.000000	0.000000	-0.112000	-0.004000	1.002000	192.000000	0.000000	0.000000	0.000000	0.000000	0.000000	0.000000	0.000000	0.000000	0.000000	1750150623.545822	0.000000
142.000000	3607.213927	-417.284717	-3873.981997	0.000000	0.000000	0.000000	0.000000	0.000000	-0.112000	-0.004000	1.002000	192.000000	0.000000	0.000000	0.000000	0.000000	0.000000	0.000000	0.000000	0.000000	0.000000	1750150623.549918	0.000000
143.000000	3605.917526	-409.975697	-3857.598169	0.000000	0.000000	0.000000	0.000000	0.000000	-0.112000	-0.004000	1.002000	192.000000	0.000000	0.000000	0.000000	0.000000	0.000000	0.000000	0.000000	0.000000	0.000000	1750150623.553908	0.000000
144.000000	3598.429692	-410.690953	-3845.774096	0.000000	0.000000	0.000000	0.000000	0.000000	-0.112000	-0.004000	1.002000	192.000000	0.000000	0.000000	0.000000	0.000000	0.000000	0.000000	0.000000	0.000000	0.000000	1750150623.559119	0.000000
145.000000	3594.518136	-417.888214	-3852.457267	0.000000	0.000000	0.000000	0.000000	0.000000	-0.116000	-0.006000	1.002000	192.000000	252.000000	96.000000	255.000000	208.000000	31.000000	80.000000	0.000000	0.000000	0.000000	1750150623.561931	0.000000
146.000000	3599.659038	-417.955270	-3870.428070	0.000000	0.000000	0.000000	0.000000	0.000000	-0.116000	-0.006000	1.002000	192.000000	0.000000	0.000000	0.000000	0.000000	0.000000	0.000000	0.000000	0.000000	0.000000	1750150623.565872	0.000000
147.000000	3606.185747	-410.869767	-3873.937294	0.000000	0.000000	0.000000	0.000000	0.000000	-0.116000	-0.006000	1.002000	192.000000	0.000000	0.000000	0.000000	0.000000	0.000000	0.000000	0.000000	0.000000	0.000000	1750150623.569923	0.000000
148.000000	3604.084683	-407.762874	-3859.453363	0.000000	0.000000	0.000000	0.000000	0.000000	-0.116000	-0.006000	1.002000	192.000000	0.000000	0.000000	0.000000	0.000000	0.000000	0.000000	0.000000	0.000000	0.000000	1750150623.573948	0.000000
149.000000	3599.167299	-410.355676	-3846.467000	0.000000	0.000000	0.000000	0.000000	0.000000	-0.116000	-0.006000	1.002000	192.000000	0.000000	0.000000	0.000000	0.000000	0.000000	0.000000	0.000000	0.000000	0.000000	1750150623.577957	0.000000
150.000000	3599.323761	-417.642345	-3856.324119	0.000000	0.000000	0.000000	0.000000	0.000000	-0.116000	-0.006000	1.002000	192.000000	0.000000	0.000000	0.000000	0.000000	0.000000	0.000000	0.000000	0.000000	0.000000	1750150623.580952	0.000000
151.000000	3604.598773	-417.172959	-3872.685596	0.000000	0.000000	0.000000	0.000000	0.000000	-0.116000	-0.006000	1.002000	192.000000	0.000000	0.000000	0.000000	0.000000	0.000000	0.000000	0.000000	0.000000	0.000000	1750150623.584948	0.000000
152.000000	3604.978753	-417.798807	-3874.764308	0.000000	0.000000	0.000000	0.000000	0.000000	-0.116000	-0.006000	1.002000	192.000000	0.000000	0.000000	0.000000	0.000000	0.000000	0.000000	0.000000	0.000000	0.000000	1750150623.588928	0.000000
153.000000	3600.553107	-415.071895	-3855.765326	0.000000	0.000000	0.000000	0.000000	0.000000	-0.116000	-0.006000	1.002000	192.000000	0.000000	0.000000	0.000000	0.000000	0.000000	0.000000	0.000000	0.000000	0.000000	1750150623.593011	0.000000
154.000000	3598.541450	-410.959174	-3843.136590	0.000000	0.000000	0.000000	0.000000	0.000000	-0.116000	-0.006000	1.002000	192.000000	0.000000	0.000000	0.000000	0.000000	0.000000	0.000000	0.000000	0.000000	0.000000	1750150623.597988	0.000000
155.000000	3599.413168	-411.160339	-3851.742012	0.000000	0.000000	0.000000	0.000000	0.000000	-0.116000	-0.002000	1.002000	192.000000	252.000000	96.000000	255.000000	240.000000	31.000000	80.000000	0.000000	0.000000	0.000000	1750150623.602017	0.000000
156.000000	3600.463700	-418.514063	-3868.885800	0.000000	0.000000	0.000000	0.000000	0.000000	-0.116000	-0.002000	1.002000	192.000000	0.000000	0.000000	0.000000	0.000000	0.000000	0.000000	0.000000	0.000000	0.000000	1750150623.606268	0.000000
157.000000	3603.883517	-417.441179	-3874.898419	0.000000	0.000000	0.000000	0.000000	0.000000	-0.116000	-0.002000	1.002000	192.000000	0.000000	0.000000	0.000000	0.000000	0.000000	0.000000	0.000000	0.000000	0.000000	1750150623.609042	0.000000
158.000000	3605.582250	-409.685124	-3861.129744	0.000000	0.000000	0.000000	0.000000	0.000000	-0.116000	-0.002000	1.002000	192.000000	0.000000	0.000000	0.000000	0.000000	0.000000	0.000000	0.000000	0.000000	0.000000	1750150623.613029	0.000000
159.000000	3603.056503	-406.667639	-3849.059802	0.000000	0.000000	0.000000	0.000000	0.000000	-0.116000	-0.002000	1.002000	192.000000	0.000000	0.000000	0.000000	0.000000	0.000000	0.000000	0.000000	0.000000	0.000000	1750150623.617014	0.000000
160.000000	3601.067197	-411.763836	-3857.374651	0.000000	0.000000	0.000000	0.000000	0.000000	-0.116000	-0.002000	1.002000	192.000000	0.000000	0.000000	0.000000	0.000000	0.000000	0.000000	0.000000	0.000000	0.000000	1750150623.621046	0.000000
161.000000	3602.520061	-421.263328	-3872.909114	0.000000	0.000000	0.000000	0.000000	0.000000	-0.116000	-0.002000	1.002000	192.000000	0.000000	0.000000	0.000000	0.000000	0.000000	0.000000	0.000000	0.000000	0.000000	1750150623.626082	0.000000
162.000000	3604.397607	-422.157398	-3874.473736	0.000000	0.000000	0.000000	0.000000	0.000000	-0.116000	-0.002000	1.002000	192.000000	0.000000	0.000000	0.000000	0.000000	0.000000	0.000000	0.000000	0.000000	0.000000	1750150623.630060	0.000000
163.000000	3603.592945	-410.802711	-3859.810991	0.000000	0.000000	0.000000	0.000000	0.000000	-0.116000	-0.002000	1.002000	192.000000	0.000000	0.000000	0.000000	0.000000	0.000000	0.000000	0.000000	0.000000	0.000000	1750150623.633101	0.000000
164.000000	3599.882555	-407.874633	-3844.634157	0.000000	0.000000	0.000000	0.000000	0.000000	-0.116000	-0.002000	1.002000	192.000000	0.000000	0.000000	0.000000	0.000000	0.000000	0.000000	0.000000	0.000000	0.000000	1750150623.637073	0.000000
165.000000	3598.541450	-415.183653	-3847.159904	0.000000	0.000000	0.000000	0.000000	0.000000	-0.116000	-0.008000	1.000000	192.000000	252.000000	96.000000	255.000000	192.000000	31.000000	64.000000	0.000000	0.000000	0.000000	1750150623.641060	0.000000
166.000000	3597.043883	-423.453799	-3860.570951	0.000000	0.000000	0.000000	0.000000	0.000000	-0.116000	-0.008000	1.000000	192.000000	0.000000	0.000000	0.000000	0.000000	0.000000	0.000000	0.000000	0.000000	0.000000	1750150623.645028	0.000000
167.000000	3599.323761	-419.475188	-3863.811954	0.000000	0.000000	0.000000	0.000000	0.000000	-0.116000	-0.008000	1.000000	192.000000	0.000000	0.000000	0.000000	0.000000	0.000000	0.000000	0.000000	0.000000	0.000000	1750150623.649123	0.000000
168.000000	3605.425788	-410.646249	-3859.565122	0.000000	0.000000	0.000000	0.000000	0.000000	-0.116000	-0.008000	1.000000	192.000000	0.000000	0.000000	0.000000	0.000000	0.000000	0.000000	0.000000	0.000000	0.000000	1750150623.654311	0.000000
169.000000	3606.722189	-402.733732	-3851.607901	0.000000	0.000000	0.000000	0.000000	0.000000	-0.116000	-0.008000	1.000000	192.000000	0.000000	0.000000	0.000000	0.000000	0.000000	0.000000	0.000000	0.000000	0.000000	1750150623.659195	0.000000
170.000000	3606.364561	-409.461607	-3857.419355	0.000000	0.000000	0.000000	0.000000	0.000000	-0.116000	-0.008000	1.000000	192.000000	0.000000	0.000000	0.000000	0.000000	0.000000	0.000000	0.000000	0.000000	0.000000	1750150623.663195	0.000000
171.000000	3609.784378	-413.350810	-3870.696291	0.000000	0.000000	0.000000	0.000000	0.000000	-0.116000	-0.008000	1.000000	192.000000	0.000000	0.000000	0.000000	0.000000	0.000000	0.000000	0.000000	0.000000	0.000000	1750150623.666038	0.000000
172.000000	3611.147834	-412.479092	-3873.423204	0.000000	0.000000	0.000000	0.000000	0.000000	-0.116000	-0.008000	1.000000	192.000000	0.000000	0.000000	0.000000	0.000000	0.000000	0.000000	0.000000	0.000000	0.000000	1750150623.669139	0.000000
173.000000	3602.810634	-408.679296	-3857.352299	0.000000	0.000000	0.000000	0.000000	0.000000	-0.116000	-0.008000	1.000000	192.000000	0.000000	0.000000	0.000000	0.000000	0.000000	0.000000	0.000000	0.000000	0.000000	1750150623.673130	0.000000
174.000000	3601.849509	-409.819235	-3842.309575	0.000000	0.000000	0.000000	0.000000	0.000000	-0.116000	-0.008000	1.000000	192.000000	0.000000	0.000000	0.000000	0.000000	0.000000	0.000000	0.000000	0.000000	0.000000	1750150623.677129	0.000000
175.000000	3604.084683	-413.194348	-3848.769230	0.000000	0.000000	0.000000	0.000000	0.000000	-0.114000	-0.006000	1.000000	192.000000	252.000000	112.000000	255.000000	208.000000	31.000000	64.000000	0.000000	0.000000	0.000000	1750150623.681226	0.000000
176.000000	3605.850471	-415.407171	-3864.258988	0.000000	0.000000	0.000000	0.000000	0.000000	-0.114000	-0.006000	1.000000	192.000000	0.000000	0.000000	0.000000	0.000000	0.000000	0.000000	0.000000	0.000000	0.000000	1750150623.686278	0.000000
177.000000	3601.916564	-419.676354	-3863.007291	0.000000	0.000000	0.000000	0.000000	0.000000	-0.114000	-0.006000	1.000000	192.000000	0.000000	0.000000	0.000000	0.000000	0.000000	0.000000	0.000000	0.000000	0.000000	1750150623.689243	0.000000
178.000000	3601.469529	-416.010668	-3851.384384	0.000000	0.000000	0.000000	0.000000	0.000000	-0.114000	-0.006000	1.000000	192.000000	0.000000	0.000000	0.000000	0.000000	0.000000	0.000000	0.000000	0.000000	0.000000	1750150623.693190	0.000000
179.000000	3609.449102	-406.846453	-3844.298881	0.000000	0.000000	0.000000	0.000000	0.000000	-0.114000	-0.006000	1.000000	192.000000	0.000000	0.000000	0.000000	0.000000	0.000000	0.000000	0.000000	0.000000	0.000000	1750150623.697174	0.000000
180.000000	3612.064256	-408.612240	-3851.674956	0.000000	0.000000	0.000000	0.000000	0.000000	-0.114000	-0.006000	1.000000	192.000000	0.000000	0.000000	0.000000	0.000000	0.000000	0.000000	0.000000	0.000000	0.000000	1750150623.701215	0.000000
181.000000	3611.796035	-415.138950	-3867.231770	0.000000	0.000000	0.000000	0.000000	0.000000	-0.114000	-0.006000	1.000000	192.000000	0.000000	0.000000	0.000000	0.000000	0.000000	0.000000	0.000000	0.000000	0.000000	1750150623.705280	0.000000
182.000000	3609.002067	-417.128255	-3871.366843	0.000000	0.000000	0.000000	0.000000	0.000000	-0.114000	-0.006000	1.000000	192.000000	0.000000	0.000000	0.000000	0.000000	0.000000	0.000000	0.000000	0.000000	0.000000	1750150623.709276	0.000000
183.000000	3602.520061	-411.048581	-3853.619558	0.000000	0.000000	0.000000	0.000000	0.000000	-0.114000	-0.006000	1.000000	192.000000	0.000000	0.000000	0.000000	0.000000	0.000000	0.000000	0.000000	0.000000	0.000000	1750150623.714187	0.000000
184.000000	3598.720264	-405.840624	-3838.062744	0.000000	0.000000	0.000000	0.000000	0.000000	-0.114000	-0.006000	1.000000	192.000000	0.000000	0.000000	0.000000	0.000000	0.000000	0.000000	0.000000	0.000000	0.000000	1750150623.717216	0.000000
185.000000	3600.843680	-413.484921	-3846.601110	0.000000	0.000000	0.000000	0.000000	0.000000	-0.114000	-0.004000	0.996000	192.000000	252.000000	112.000000	255.000000	224.000000	31.000000	32.000000	0.000000	0.000000	0.000000	1750150623.721260	0.000000
186.000000	3604.062331	-420.101037	-3861.286206	0.000000	0.000000	0.000000	0.000000	0.000000	-0.114000	-0.004000	0.996000	192.000000	0.000000	0.000000	0.000000	0.000000	0.000000	0.000000	0.000000	0.000000	0.000000	1750150623.725200	0.000000
187.000000	3607.526852	-420.190444	-3865.890666	0.000000	0.000000	0.000000	0.000000	0.000000	-0.114000	-0.004000	0.996000	192.000000	0.000000	0.000000	0.000000	0.000000	0.000000	0.000000	0.000000	0.000000	0.000000	1750150623.729158	0.000000
188.000000	3607.593907	-413.730790	-3851.943177	0.000000	0.000000	0.000000	0.000000	0.000000	-0.114000	-0.004000	0.996000	192.000000	0.000000	0.000000	0.000000	0.000000	0.000000	0.000000	0.000000	0.000000	0.000000	1750150623.733197	0.000000
189.000000	3603.190613	-408.008743	-3837.660413	0.000000	0.000000	0.000000	0.000000	0.000000	-0.114000	-0.004000	0.996000	192.000000	0.000000	0.000000	0.000000	0.000000	0.000000	0.000000	0.000000	0.000000	0.000000	1750150623.737176	0.000000
190.000000	3604.688180	-411.830892	-3846.288186	0.000000	0.000000	0.000000	0.000000	0.000000	-0.114000	-0.004000	0.996000	192.000000	0.000000	0.000000	0.000000	0.000000	0.000000	0.000000	0.000000	0.000000	0.000000	1750150623.742258	0.000000
191.000000	3610.611392	-417.955270	-3864.236637	0.000000	0.000000	0.000000	0.000000	0.000000	-0.114000	-0.004000	0.996000	192.000000	0.000000	0.000000	0.000000	0.000000	0.000000	0.000000	0.000000	0.000000	0.000000	1750150623.745187	0.000000
192.000000	3608.756198	-414.602508	-3866.650625	0.000000	0.000000	0.000000	0.000000	0.000000	-0.114000	-0.004000	0.996000	192.000000	0.000000	0.000000	0.000000	0.000000	0.000000	0.000000	0.000000	0.000000	0.000000	1750150623.748269	0.000000
193.000000	3603.503538	-411.406208	-3850.780887	0.000000	0.000000	0.000000	0.000000	0.000000	-0.114000	-0.004000	0.996000	192.000000	0.000000	0.000000	0.000000	0.000000	0.000000	0.000000	0.000000	0.000000	0.000000	1750150623.753189	0.000000
194.000000	3602.855337	-410.087456	-3838.621538	0.000000	0.000000	0.000000	0.000000	0.000000	-0.114000	-0.004000	0.996000	192.000000	0.000000	0.000000	0.000000	0.000000	0.000000	0.000000	0.000000	0.000000	0.000000	1750150623.757428	0.000000
195.000000	3604.129386	-410.065104	-3847.852808	0.000000	0.000000	0.000000	0.000000	0.000000	-0.120000	-0.004000	0.994000	192.000000	252.000000	64.000000	255.000000	224.000000	31.000000	16.000000	0.000000	0.000000	0.000000	1750150623.761335	0.000000
196.000000	3608.040942	-417.776456	-3864.884837	0.000000	0.000000	0.000000	0.000000	0.000000	-0.120000	-0.004000	0.994000	192.000000	0.000000	0.000000	0.000000	0.000000	0.000000	0.000000	0.000000	0.000000	0.000000	1750150623.765305	0.000000
197.000000	3608.219756	-417.351772	-3869.042262	0.000000	0.000000	0.000000	0.000000	0.000000	-0.120000	-0.004000	0.994000	192.000000	0.000000	0.000000	0.000000	0.000000	0.000000	0.000000	0.000000	0.000000	0.000000	1750150623.770248	0.000000
198.000000	3605.403436	-411.428560	-3853.708965	0.000000	0.000000	0.000000	0.000000	0.000000	-0.120000	-0.004000	0.994000	192.000000	0.000000	0.000000	0.000000	0.000000	0.000000	0.000000	0.000000	0.000000	0.000000	1750150623.773281	0.000000
199.000000	3604.352904	-410.400380	-3841.303747	0.000000	0.000000	0.000000	0.000000	0.000000	-0.120000	-0.004000	0.994000	192.000000	0.000000	0.000000	0.000000	0.000000	0.000000	0.000000	0.000000	0.000000	0.000000	1750150623.777279	0.000000
200.000000	3604.755235	-414.513101	-3851.250273	0.000000	0.000000	0.000000	0.000000	0.000000	-0.120000	-0.004000	0.994000	192.000000	0.000000	0.000000	0.000000	0.000000	0.000000	0.000000	0.000000	0.000000	0.000000	1750150623.781240	0.000000
201.000000	3605.515195	-418.715229	-3867.477640	0.000000	0.000000	0.000000	0.000000	0.000000	-0.120000	-0.004000	0.994000	192.000000	0.000000	0.000000	0.000000	0.000000	0.000000	0.000000	0.000000	0.000000	0.000000	1750150623.785252	0.000000
202.000000	3610.946668	-419.095209	-3870.316311	0.000000	0.000000	0.000000	0.000000	0.000000	-0.120000	-0.004000	0.994000	192.000000	0.000000	0.000000	0.000000	0.000000	0.000000	0.000000	0.000000	0.000000	0.000000	1750150623.789317	0.000000
203.000000	3609.203232	-416.792979	-3856.301767	0.000000	0.000000	0.000000	0.000000	0.000000	-0.120000	-0.004000	0.994000	192.000000	0.000000	0.000000	0.000000	0.000000	0.000000	0.000000	0.000000	0.000000	0.000000	1750150623.795360	0.000000
204.000000	3605.358732	-412.501444	-3845.550578	0.000000	0.000000	0.000000	0.000000	0.000000	-0.124000	-0.010000	1.000000	192.000000	252.000000	32.000000	255.000000	176.000000	31.000000	64.000000	0.000000	0.000000	0.000000	1750150623.798290	0.000000
205.000000	3608.487977	-411.607374	-3850.847942	0.000000	0.000000	0.000000	0.000000	0.000000	-0.124000	-0.010000	1.000000	192.000000	0.000000	0.000000	0.000000	0.000000	0.000000	0.000000	0.000000	0.000000	0.000000	1750150623.801359	0.000000
206.000000	3610.410227	-416.949441	-3869.064613	0.000000	0.000000	0.000000	0.000000	0.000000	-0.124000	-0.010000	1.000000	192.000000	0.000000	0.000000	0.000000	0.000000	0.000000	0.000000	0.000000	0.000000	0.000000	1750150623.806358	0.000000
207.000000	3607.728017	-419.564595	-3868.483468	0.000000	0.000000	0.000000	0.000000	0.000000	-0.124000	-0.010000	1.000000	192.000000	0.000000	0.000000	0.000000	0.000000	0.000000	0.000000	0.000000	0.000000	0.000000	1750150623.809437	0.000000
208.000000	3606.521023	-415.273060	-3852.770192	0.000000	0.000000	0.000000	0.000000	0.000000	-0.124000	-0.010000	1.000000	192.000000	0.000000	0.000000	0.000000	0.000000	0.000000	0.000000	0.000000	0.000000	0.000000	1750150623.813301	0.000000
209.000000	3604.084683	-408.388723	-3844.365936	0.000000	0.000000	0.000000	0.000000	0.000000	-0.124000	-0.010000	1.000000	192.000000	0.000000	0.000000	0.000000	0.000000	0.000000	0.000000	0.000000	0.000000	0.000000	1750150623.817355	0.000000
210.000000	3604.107035	-415.317764	-3848.277491	0.000000	0.000000	0.000000	0.000000	0.000000	-0.124000	-0.010000	1.000000	192.000000	0.000000	0.000000	0.000000	0.000000	0.000000	0.000000	0.000000	0.000000	0.000000	1750150623.821328	0.000000
211.000000	3613.807692	-421.196273	-3862.582608	0.000000	0.000000	0.000000	0.000000	0.000000	-0.124000	-0.010000	1.000000	192.000000	0.000000	0.000000	0.000000	0.000000	0.000000	0.000000	0.000000	0.000000	0.000000	1750150623.826322	0.000000
212.000000	3615.528776	-419.877520	-3866.024776	0.000000	0.000000	0.000000	0.000000	0.000000	-0.124000	-0.010000	1.000000	192.000000	0.000000	0.000000	0.000000	0.000000	0.000000	0.000000	0.000000	0.000000	0.000000	1750150623.829389	0.000000
213.000000	3610.767855	-415.183653	-3852.233750	0.000000	0.000000	0.000000	0.000000	0.000000	-0.124000	-0.010000	1.000000	192.000000	0.000000	0.000000	0.000000	0.000000	0.000000	0.000000	0.000000	0.000000	0.000000	1750150623.832408	0.000000
214.000000	3603.592945	-410.422732	-3838.889758	0.000000	0.000000	0.000000	0.000000	0.000000	-0.120000	-0.010000	1.002000	192.000000	252.000000	64.000000	255.000000	176.000000	31.000000	80.000000	0.000000	0.000000	0.000000	1750150623.837360	0.000000
215.000000	3600.933087	-415.496578	-3841.281395	0.000000	0.000000	0.000000	0.000000	0.000000	-0.120000	-0.010000	1.002000	192.000000	0.000000	0.000000	0.000000	0.000000	0.000000	0.000000	0.000000	0.000000	0.000000	1750150623.841416	0.000000
216.000000	3612.108959	-417.351772	-3860.973282	0.000000	0.000000	0.000000	0.000000	0.000000	-0.120000	-0.010000	1.002000	192.000000	0.000000	0.000000	0.000000	0.000000	0.000000	0.000000	0.000000	0.000000	0.000000	1750150623.845423	0.000000
217.000000	3616.735770	-417.731752	-3870.271608	0.000000	0.000000	0.000000	0.000000	0.000000	-0.120000	-0.010000	1.002000	192.000000	0.000000	0.000000	0.000000	0.000000	0.000000	0.000000	0.000000	0.000000	0.000000	1750150623.849487	0.000000
218.000000	3616.266384	-413.820197	-3857.844038	0.000000	0.000000	0.000000	0.000000	0.000000	-0.120000	-0.010000	1.002000	192.000000	0.000000	0.000000	0.000000	0.000000	0.000000	0.000000	0.000000	0.000000	0.000000	1750150623.853515	0.000000
219.000000	3608.867956	-409.595717	-3842.823665	0.000000	0.000000	0.000000	0.000000	0.000000	-0.120000	-0.010000	1.002000	192.000000	0.000000	0.000000	0.000000	0.000000	0.000000	0.000000	0.000000	0.000000	0.000000	1750150623.857473	0.000000
220.000000	3605.872823	-413.484921	-3851.406735	0.000000	0.000000	0.000000	0.000000	0.000000	-0.120000	-0.010000	1.002000	192.000000	0.000000	0.000000	0.000000	0.000000	0.000000	0.000000	0.000000	0.000000	0.000000	1750150623.860570	0.000000
221.000000	3610.901965	-416.278889	-3867.924675	0.000000	0.000000	0.000000	0.000000	0.000000	-0.120000	-0.010000	1.002000	192.000000	0.000000	0.000000	0.000000	0.000000	0.000000	0.000000	0.000000	0.000000	0.000000	1750150623.865516	0.000000
222.000000	3615.908756	-415.384819	-3870.606884	0.000000	0.000000	0.000000	0.000000	0.000000	-0.120000	-0.010000	1.002000	192.000000	0.000000	0.000000	0.000000	0.000000	0.000000	0.000000	0.000000	0.000000	0.000000	1750150623.869501	0.000000
223.000000	3611.796035	-409.796883	-3853.820724	0.000000	0.000000	0.000000	0.000000	0.000000	-0.120000	-0.010000	1.002000	192.000000	0.000000	0.000000	0.000000	0.000000	0.000000	0.000000	0.000000	0.000000	0.000000	1750150623.873447	0.000000
224.000000	3605.604602	-408.433426	-3838.599186	0.000000	0.000000	0.000000	0.000000	0.000000	-0.122000	-0.006000	1.000000	192.000000	252.000000	48.000000	255.000000	208.000000	31.000000	64.000000	0.000000	0.000000	0.000000	1750150623.877524	0.000000
225.000000	3608.644439	-408.120502	-3844.365936	0.000000	0.000000	0.000000	0.000000	0.000000	-0.122000	-0.006000	1.000000	192.000000	0.000000	0.000000	0.000000	0.000000	0.000000	0.000000	0.000000	0.000000	0.000000	1750150623.881524	0.000000
226.000000	3615.148796	-411.763836	-3862.582608	0.000000	0.000000	0.000000	0.000000	0.000000	-0.122000	-0.006000	1.000000	192.000000	0.000000	0.000000	0.000000	0.000000	0.000000	0.000000	0.000000	0.000000	0.000000	1750150623.885525	0.000000
227.000000	3614.880576	-418.290546	-3864.996596	0.000000	0.000000	0.000000	0.000000	0.000000	-0.122000	-0.006000	1.000000	192.000000	0.000000	0.000000	0.000000	0.000000	0.000000	0.000000	0.000000	0.000000	0.000000	1750150623.890527	0.000000
228.000000	3612.846567	-413.551976	-3850.691480	0.000000	0.000000	0.000000	0.000000	0.000000	-0.122000	-0.006000	1.000000	192.000000	0.000000	0.000000	0.000000	0.000000	0.000000	0.000000	0.000000	0.000000	0.000000	1750150623.893543	0.000000
229.000000	3607.370389	-410.132159	-3838.018040	0.000000	0.000000	0.000000	0.000000	0.000000	-0.122000	-0.006000	1.000000	192.000000	0.000000	0.000000	0.000000	0.000000	0.000000	0.000000	0.000000	0.000000	0.000000	1750150623.897552	0.000000
230.000000	3607.258631	-410.467435	-3842.153113	0.000000	0.000000	0.000000	0.000000	0.000000	-0.122000	-0.006000	1.000000	192.000000	0.000000	0.000000	0.000000	0.000000	0.000000	0.000000	0.000000	0.000000	0.000000	1750150623.901547	0.000000
231.000000	3608.599735	-413.999011	-3855.474753	0.000000	0.000000	0.000000	0.000000	0.000000	-0.122000	-0.006000	1.000000	192.000000	0.000000	0.000000	0.000000	0.000000	0.000000	0.000000	0.000000	0.000000	0.000000	1750150623.905602	0.000000
232.000000	3612.198366	-414.110770	-3860.526247	0.000000	0.000000	0.000000	0.000000	0.000000	-0.122000	-0.006000	1.000000	192.000000	0.000000	0.000000	0.000000	0.000000	0.000000	0.000000	0.000000	0.000000	0.000000	1750150623.909635	0.000000
233.000000	3609.538509	-406.779397	-3847.696346	0.000000	0.000000	0.000000	0.000000	0.000000	-0.122000	-0.006000	1.000000	192.000000	0.000000	0.000000	0.000000	0.000000	0.000000	0.000000	0.000000	0.000000	0.000000	1750150623.913553	0.000000
234.000000	3610.611392	-404.924203	-3834.151189	0.000000	0.000000	0.000000	0.000000	0.000000	-0.120000	-0.006000	1.002000	192.000000	252.000000	64.000000	255.000000	208.000000	31.000000	80.000000	0.000000	0.000000	0.000000	1750150623.916647	0.000000
235.000000	3608.778549	-410.132159	-3838.822703	0.000000	0.000000	0.000000	0.000000	0.000000	-0.120000	-0.006000	1.002000	192.000000	0.000000	0.000000	0.000000	0.000000	0.000000	0.000000	0.000000	0.000000	0.000000	1750150623.920630	0.000000
