179.000000	-28499.658823	-24708.087708	-28228.398052	0.000000	0.000000	0.000000	0.000000	0.000000	0.000000	0.000000	0.000000	192.000000	0.000000	0.000000	0.000000	0.000000	0.000000	0.000000	0.000000	0.000000	0.000000	1749122273.553075	0.000000
180.000000	-28511.393489	-24710.591103	-28249.788672	0.000000	0.000000	0.000000	0.000000	0.000000	0.014000	-0.018000	-1.014000	192.000000	0.000000	112.000000	255.000000	112.000000	224.000000	80.000000	0.000000	0.000000	0.000000	1749122273.553352	0.000000
181.000000	-28514.545085	-24710.389937	-28256.114215	0.000000	0.000000	0.000000	0.000000	0.000000	0.014000	-0.018000	-1.014000	192.000000	0.000000	0.000000	0.000000	0.000000	0.000000	0.000000	0.000000	0.000000	0.000000	1749122273.553422	0.000000
182.000000	-28506.900788	-24711.038138	-28241.183250	0.000000	0.000000	0.000000	0.000000	0.000000	0.014000	-0.018000	-1.014000	192.000000	0.000000	0.000000	0.000000	0.000000	0.000000	0.000000	0.000000	0.000000	0.000000	1749122273.553482	0.000000
0.000000	0.000000	0.000000	0.000000	0.000000	0.000000	0.000000	0.000000	0.000000	0.014000	-0.018000	-1.014000	192.000000	0.000000	0.000000	0.000000	0.000000	0.000000	0.000000	0.000000	0.000000	0.000000	1749122273.624844	0.000000
1.000000	-39374.251887	26082.407067	-28853.330475	0.000000	0.000000	0.000000	0.000000	0.000000	0.012000	-0.024000	-1.016000	192.000000	0.000000	96.000000	255.000000	64.000000	224.000000	64.000000	0.000000	0.000000	0.000000	1749122273.642072	0.000000
2.000000	-39376.755282	26084.597538	-28858.158452	0.000000	0.000000	0.000000	0.000000	0.000000	0.012000	-0.024000	-1.016000	192.000000	0.000000	0.000000	0.000000	0.000000	0.000000	0.000000	0.000000	0.000000	0.000000	1749122273.644925	0.000000
3.000000	-39368.172213	26072.706410	-28841.439347	0.000000	0.000000	0.000000	0.000000	0.000000	0.012000	-0.024000	-1.016000	192.000000	0.000000	0.000000	0.000000	0.000000	0.000000	0.000000	0.000000	0.000000	0.000000	1749122273.648908	0.000000
4.000000	-39359.902067	26062.581070	-28825.748423	0.000000	0.000000	0.000000	0.000000	0.000000	0.012000	-0.024000	-1.016000	192.000000	0.000000	0.000000	0.000000	0.000000	0.000000	0.000000	0.000000	0.000000	0.000000	1749122273.652864	0.000000
5.000000	-39362.249000	26067.744323	-28830.866972	0.000000	0.000000	0.000000	0.000000	0.000000	0.012000	-0.024000	-1.016000	192.000000	0.000000	0.000000	0.000000	0.000000	0.000000	0.000000	0.000000	0.000000	0.000000	1749122273.655922	0.000000
6.000000	-39371.279105	26080.060134	-28848.681313	0.000000	0.000000	0.000000	0.000000	0.000000	0.012000	-0.024000	-1.016000	192.000000	0.000000	0.000000	0.000000	0.000000	0.000000	0.000000	0.000000	0.000000	0.000000	1749122273.659900	0.000000
7.000000	-39372.530803	26080.641279	-28851.765853	0.000000	0.000000	0.000000	0.000000	0.000000	0.012000	-0.024000	-1.016000	192.000000	0.000000	0.000000	0.000000	0.000000	0.000000	0.000000	0.000000	0.000000	0.000000	1749122273.663940	0.000000
8.000000	-39364.037140	26068.817206	-28834.711472	0.000000	0.000000	0.000000	0.000000	0.000000	0.008000	-0.024000	-1.018000	192.000000	0.000000	64.000000	255.000000	64.000000	224.000000	48.000000	0.000000	0.000000	0.000000	1749122273.668002	0.000000
9.000000	-39356.325788	26059.317715	-28819.042899	0.000000	0.000000	0.000000	0.000000	0.000000	0.008000	-0.024000	-1.018000	192.000000	0.000000	0.000000	0.000000	0.000000	0.000000	0.000000	0.000000	0.000000	0.000000	1749122273.672942	0.000000
10.000000	-39360.639675	26065.844424	-28825.770775	0.000000	0.000000	0.000000	0.000000	0.000000	0.008000	-0.024000	-1.018000	192.000000	0.000000	0.000000	0.000000	0.000000	0.000000	0.000000	0.000000	0.000000	0.000000	1749122273.676923	0.000000
11.000000	-39370.183870	26078.763733	-28843.853336	0.000000	0.000000	0.000000	0.000000	0.000000	0.008000	-0.024000	-1.018000	192.000000	0.000000	0.000000	0.000000	0.000000	0.000000	0.000000	0.000000	0.000000	0.000000	1749122273.681087	0.000000
12.000000	-39372.217878	26080.082486	-28847.519022	0.000000	0.000000	0.000000	0.000000	0.000000	0.008000	-0.024000	-1.018000	192.000000	0.000000	0.000000	0.000000	0.000000	0.000000	0.000000	0.000000	0.000000	0.000000	1749122273.684054	0.000000
13.000000	-39360.349102	26064.212747	-28826.843658	0.000000	0.000000	0.000000	0.000000	0.000000	0.008000	-0.024000	-1.018000	192.000000	0.000000	0.000000	0.000000	0.000000	0.000000	0.000000	0.000000	0.000000	0.000000	1749122273.688035	0.000000
14.000000	-39349.955541	26051.673418	-28808.626987	0.000000	0.000000	0.000000	0.000000	0.000000	0.008000	-0.024000	-1.018000	192.000000	0.000000	0.000000	0.000000	0.000000	0.000000	0.000000	0.000000	0.000000	0.000000	1749122273.691992	0.000000
15.000000	-39353.643579	26057.127244	-28814.840772	0.000000	0.000000	0.000000	0.000000	0.000000	0.008000	-0.024000	-1.018000	192.000000	0.000000	0.000000	0.000000	0.000000	0.000000	0.000000	0.000000	0.000000	0.000000	1749122273.695991	0.000000
16.000000	-39365.467652	26072.214672	-28834.890286	0.000000	0.000000	0.000000	0.000000	0.000000	0.008000	-0.024000	-1.018000	192.000000	0.000000	0.000000	0.000000	0.000000	0.000000	0.000000	0.000000	0.000000	0.000000	1749122273.701064	0.000000
17.000000	-39369.178041	26075.902709	-28840.388815	0.000000	0.000000	0.000000	0.000000	0.000000	0.010000	-0.020000	-1.018000	192.000000	0.000000	80.000000	255.000000	96.000000	224.000000	48.000000	0.000000	0.000000	0.000000	1749122273.705122	0.000000
18.000000	-39359.052701	26062.312849	-28821.836868	0.000000	0.000000	0.000000	0.000000	0.000000	0.010000	-0.020000	-1.018000	192.000000	0.000000	0.000000	0.000000	0.000000	0.000000	0.000000	0.000000	0.000000	0.000000	1749122273.708983	0.000000
19.000000	-39350.044948	26051.136977	-28804.938949	0.000000	0.000000	0.000000	0.000000	0.000000	0.010000	-0.020000	-1.018000	192.000000	0.000000	0.000000	0.000000	0.000000	0.000000	0.000000	0.000000	0.000000	0.000000	1749122273.712009	0.000000
20.000000	-39353.397710	26056.479044	-28810.616292	0.000000	0.000000	0.000000	0.000000	0.000000	0.010000	-0.020000	-1.018000	192.000000	0.000000	0.000000	0.000000	0.000000	0.000000	0.000000	0.000000	0.000000	0.000000	1749122273.716039	0.000000
21.000000	-39364.752396	26070.761808	-28830.621103	0.000000	0.000000	0.000000	0.000000	0.000000	0.010000	-0.020000	-1.018000	192.000000	0.000000	0.000000	0.000000	0.000000	0.000000	0.000000	0.000000	0.000000	0.000000	1749122273.720041	0.000000
22.000000	-39367.144032	26072.639355	-28835.024397	0.000000	0.000000	0.000000	0.000000	0.000000	0.010000	-0.020000	-1.018000	192.000000	0.000000	0.000000	0.000000	0.000000	0.000000	0.000000	0.000000	0.000000	0.000000	1749122273.724078	0.000000
23.000000	-39358.560963	26060.547061	-28818.059423	0.000000	0.000000	0.000000	0.000000	0.000000	0.010000	-0.020000	-1.018000	192.000000	0.000000	0.000000	0.000000	0.000000	0.000000	0.000000	0.000000	0.000000	0.000000	1749122273.729169	0.000000
24.000000	-39352.190715	26052.299267	-28803.933120	0.000000	0.000000	0.000000	0.000000	0.000000	0.010000	-0.020000	-1.018000	192.000000	0.000000	0.000000	0.000000	0.000000	0.000000	0.000000	0.000000	0.000000	0.000000	1749122273.733316	0.000000
25.000000	-39357.242210	26060.368247	-28811.532713	0.000000	0.000000	0.000000	0.000000	0.000000	0.010000	-0.020000	-1.018000	192.000000	0.000000	0.000000	0.000000	0.000000	0.000000	0.000000	0.000000	0.000000	0.000000	1749122273.737084	0.000000
26.000000	-39365.132375	26072.035858	-28828.184763	0.000000	0.000000	0.000000	0.000000	0.000000	0.010000	-0.020000	-1.018000	192.000000	0.000000	0.000000	0.000000	0.000000	0.000000	0.000000	0.000000	0.000000	0.000000	1749122273.740163	0.000000
27.000000	-39366.808756	26072.996983	-28831.850449	0.000000	0.000000	0.000000	0.000000	0.000000	0.012000	-0.020000	-1.022000	192.000000	0.000000	96.000000	255.000000	96.000000	224.000000	16.000000	0.000000	0.000000	0.000000	1749122273.744025	0.000000
28.000000	-39358.784480	26061.441131	-28815.287806	0.000000	0.000000	0.000000	0.000000	0.000000	0.012000	-0.020000	-1.022000	192.000000	0.000000	0.000000	0.000000	0.000000	0.000000	0.000000	0.000000	0.000000	0.000000	1749122273.748043	0.000000
29.000000	-39351.318997	26051.561660	-28799.641585	0.000000	0.000000	0.000000	0.000000	0.000000	0.012000	-0.020000	-1.022000	192.000000	0.000000	0.000000	0.000000	0.000000	0.000000	0.000000	0.000000	0.000000	0.000000	1749122273.752078	0.000000
30.000000	-39353.710634	26055.964953	-28804.178989	0.000000	0.000000	0.000000	0.000000	0.000000	0.012000	-0.020000	-1.022000	192.000000	0.000000	0.000000	0.000000	0.000000	0.000000	0.000000	0.000000	0.000000	0.000000	1749122273.757176	0.000000
31.000000	-39364.148899	26069.644221	-28822.797993	0.000000	0.000000	0.000000	0.000000	0.000000	0.012000	-0.020000	-1.022000	192.000000	0.000000	0.000000	0.000000	0.000000	0.000000	0.000000	0.000000	0.000000	0.000000	1749122273.761164	0.000000
32.000000	-39369.513317	26074.740419	-28829.883496	0.000000	0.000000	0.000000	0.000000	0.000000	0.012000	-0.020000	-1.022000	192.000000	0.000000	0.000000	0.000000	0.000000	0.000000	0.000000	0.000000	0.000000	0.000000	1749122273.765261	0.000000
33.000000	-39357.532782	26059.563584	-28809.342242	0.000000	0.000000	0.000000	0.000000	0.000000	0.012000	-0.020000	-1.022000	192.000000	0.000000	0.000000	0.000000	0.000000	0.000000	0.000000	0.000000	0.000000	0.000000	1749122273.768283	0.000000
34.000000	-39346.423965	26046.554869	-28790.410315	0.000000	0.000000	0.000000	0.000000	0.000000	0.012000	-0.020000	-1.022000	192.000000	0.000000	0.000000	0.000000	0.000000	0.000000	0.000000	0.000000	0.000000	0.000000	1749122273.772191	0.000000
35.000000	-39352.414233	26055.003828	-28798.971033	0.000000	0.000000	0.000000	0.000000	0.000000	0.012000	-0.020000	-1.022000	192.000000	0.000000	0.000000	0.000000	0.000000	0.000000	0.000000	0.000000	0.000000	0.000000	1749122273.776281	0.000000
36.000000	-39364.774747	26071.164140	-28820.004025	0.000000	0.000000	0.000000	0.000000	0.000000	0.012000	-0.020000	-1.022000	192.000000	0.000000	0.000000	0.000000	0.000000	0.000000	0.000000	0.000000	0.000000	0.000000	1749122273.780168	0.000000
37.000000	-39367.054625	26073.421666	-28824.407318	0.000000	0.000000	0.000000	0.000000	0.000000	0.016000	-0.016000	-1.022000	192.000000	0.000000	128.000000	255.000000	128.000000	224.000000	16.000000	0.000000	0.000000	0.000000	1749122273.784126	0.000000
38.000000	-39357.532782	26060.681171	-28806.615330	0.000000	0.000000	0.000000	0.000000	0.000000	0.016000	-0.016000	-1.022000	192.000000	0.000000	0.000000	0.000000	0.000000	0.000000	0.000000	0.000000	0.000000	0.000000	1749122273.789219	0.000000
39.000000	-39349.843782	26051.136977	-28790.969108	0.000000	0.000000	0.000000	0.000000	0.000000	0.016000	-0.016000	-1.022000	192.000000	0.000000	0.000000	0.000000	0.000000	0.000000	0.000000	0.000000	0.000000	0.000000	1749122273.793207	0.000000
40.000000	-39355.342311	26059.295363	-28798.591053	0.000000	0.000000	0.000000	0.000000	0.000000	0.016000	-0.016000	-1.022000	192.000000	0.000000	0.000000	0.000000	0.000000	0.000000	0.000000	0.000000	0.000000	0.000000	1749122273.796256	0.000000
41.000000	-39365.244134	26073.175797	-28817.321815	0.000000	0.000000	0.000000	0.000000	0.000000	0.016000	-0.016000	-1.022000	192.000000	0.000000	0.000000	0.000000	0.000000	0.000000	0.000000	0.000000	0.000000	0.000000	1749122273.800258	0.000000
42.000000	-39364.730044	26072.572300	-28819.355824	0.000000	0.000000	0.000000	0.000000	0.000000	0.016000	-0.016000	-1.022000	192.000000	0.000000	0.000000	0.000000	0.000000	0.000000	0.000000	0.000000	0.000000	0.000000	1749122273.804312	0.000000
43.000000	-39356.146974	26060.882337	-28802.860237	0.000000	0.000000	0.000000	0.000000	0.000000	0.016000	-0.016000	-1.022000	192.000000	0.000000	0.000000	0.000000	0.000000	0.000000	0.000000	0.000000	0.000000	0.000000	1749122273.808215	0.000000
44.000000	-39347.988587	26050.958163	-28787.146960	0.000000	0.000000	0.000000	0.000000	0.000000	0.016000	-0.016000	-1.022000	192.000000	0.000000	0.000000	0.000000	0.000000	0.000000	0.000000	0.000000	0.000000	0.000000	1749122273.812329	0.000000
45.000000	-39351.095480	26056.680209	-28793.159579	0.000000	0.000000	0.000000	0.000000	0.000000	0.016000	-0.016000	-1.022000	192.000000	0.000000	0.000000	0.000000	0.000000	0.000000	0.000000	0.000000	0.000000	0.000000	1749122273.817225	0.000000
46.000000	-39360.304399	26069.912442	-28811.309196	0.000000	0.000000	0.000000	0.000000	0.000000	0.016000	-0.016000	-1.022000	192.000000	0.000000	0.000000	0.000000	0.000000	0.000000	0.000000	0.000000	0.000000	0.000000	1749122273.821396	0.000000
47.000000	-39361.243172	26070.873567	-28814.930179	0.000000	0.000000	0.000000	0.000000	0.000000	0.010000	-0.018000	-1.020000	192.000000	0.000000	80.000000	255.000000	112.000000	224.000000	32.000000	0.000000	0.000000	0.000000	1749122273.824255	0.000000
48.000000	-39351.564866	26057.931907	-28797.384059	0.000000	0.000000	0.000000	0.000000	0.000000	0.010000	-0.018000	-1.020000	192.000000	0.000000	0.000000	0.000000	0.000000	0.000000	0.000000	0.000000	0.000000	0.000000	1749122273.828233	0.000000
49.000000	-39343.361776	26048.141843	-28781.648431	0.000000	0.000000	0.000000	0.000000	0.000000	0.010000	-0.018000	-1.020000	192.000000	0.000000	0.000000	0.000000	0.000000	0.000000	0.000000	0.000000	0.000000	0.000000	1749122273.832306	0.000000
50.000000	-39347.161573	26054.847366	-28788.018678	0.000000	0.000000	0.000000	0.000000	0.000000	0.010000	-0.018000	-1.020000	192.000000	0.000000	0.000000	0.000000	0.000000	0.000000	0.000000	0.000000	0.000000	0.000000	1749122273.836287	0.000000
51.000000	-39356.303436	26067.699619	-28806.145943	0.000000	0.000000	0.000000	0.000000	0.000000	0.010000	-0.018000	-1.020000	192.000000	0.000000	0.000000	0.000000	0.000000	0.000000	0.000000	0.000000	0.000000	0.000000	1749122273.840337	0.000000
52.000000	-39357.733948	26068.951317	-28810.303367	0.000000	0.000000	0.000000	0.000000	0.000000	0.010000	-0.018000	-1.020000	192.000000	0.000000	0.000000	0.000000	0.000000	0.000000	0.000000	0.000000	0.000000	0.000000	1749122273.844285	0.000000
53.000000	-39347.563904	26055.227346	-28792.243158	0.000000	0.000000	0.000000	0.000000	0.000000	0.010000	-0.018000	-1.020000	192.000000	0.000000	0.000000	0.000000	0.000000	0.000000	0.000000	0.000000	0.000000	0.000000	1749122273.849367	0.000000
54.000000	-39336.365680	26042.263334	-28773.512396	0.000000	0.000000	0.000000	0.000000	0.000000	0.010000	-0.018000	-1.020000	192.000000	0.000000	0.000000	0.000000	0.000000	0.000000	0.000000	0.000000	0.000000	0.000000	1749122273.852309	0.000000
55.000000	-39338.310282	26046.554869	-28778.139207	0.000000	0.000000	0.000000	0.000000	0.000000	0.010000	-0.018000	-1.020000	192.000000	0.000000	0.000000	0.000000	0.000000	0.000000	0.000000	0.000000	0.000000	0.000000	1749122273.856377	0.000000
56.000000	-39352.213067	26063.631602	-28800.759173	0.000000	0.000000	0.000000	0.000000	0.000000	0.010000	-0.018000	-1.020000	192.000000	0.000000	0.000000	0.000000	0.000000	0.000000	0.000000	0.000000	0.000000	0.000000	1749122273.860510	0.000000
57.000000	-39357.242210	26068.593689	-28808.291710	0.000000	0.000000	0.000000	0.000000	0.000000	0.012000	-0.016000	-1.026000	192.000000	0.000000	96.000000	255.000000	128.000000	223.000000	240.000000	0.000000	0.000000	0.000000	1749122273.864307	0.000000
58.000000	-39347.765070	26055.629677	-28790.767943	0.000000	0.000000	0.000000	0.000000	0.000000	0.012000	-0.016000	-1.026000	192.000000	0.000000	0.000000	0.000000	0.000000	0.000000	0.000000	0.000000	0.000000	0.000000	1749122273.868377	0.000000
59.000000	-39338.757317	26044.207936	-28773.981783	0.000000	0.000000	0.000000	0.000000	0.000000	0.012000	-0.016000	-1.026000	192.000000	0.000000	0.000000	0.000000	0.000000	0.000000	0.000000	0.000000	0.000000	0.000000	1749122273.872381	0.000000
60.000000	-39341.283064	26049.058264	-28778.809759	0.000000	0.000000	0.000000	0.000000	0.000000	0.012000	-0.016000	-1.026000	192.000000	0.000000	0.000000	0.000000	0.000000	0.000000	0.000000	0.000000	0.000000	0.000000	1749122273.877393	0.000000
61.000000	-39351.788384	26062.804587	-28798.166370	0.000000	0.000000	0.000000	0.000000	0.000000	0.012000	-0.016000	-1.026000	192.000000	0.000000	0.000000	0.000000	0.000000	0.000000	0.000000	0.000000	0.000000	0.000000	1749122273.880388	0.000000
62.000000	-39354.738814	26065.196224	-28803.709603	0.000000	0.000000	0.000000	0.000000	0.000000	0.012000	-0.016000	-1.026000	192.000000	0.000000	0.000000	0.000000	0.000000	0.000000	0.000000	0.000000	0.000000	0.000000	1749122273.884315	0.000000
63.000000	-39344.457012	26051.360494	-28785.381172	0.000000	0.000000	0.000000	0.000000	0.000000	0.012000	-0.016000	-1.026000	192.000000	0.000000	0.000000	0.000000	0.000000	0.000000	0.000000	0.000000	0.000000	0.000000	1749122273.888324	0.000000
64.000000	-39336.455087	26040.877526	-28769.489082	0.000000	0.000000	0.000000	0.000000	0.000000	0.012000	-0.016000	-1.026000	192.000000	0.000000	0.000000	0.000000	0.000000	0.000000	0.000000	0.000000	0.000000	0.000000	1749122273.892479	0.000000
65.000000	-39339.383166	26045.772558	-28774.764094	0.000000	0.000000	0.000000	0.000000	0.000000	0.012000	-0.016000	-1.026000	192.000000	0.000000	0.000000	0.000000	0.000000	0.000000	0.000000	0.000000	0.000000	0.000000	1749122273.896442	0.000000
66.000000	-39354.068262	26063.877471	-28798.389888	0.000000	0.000000	0.000000	0.000000	0.000000	0.012000	-0.018000	-1.026000	192.000000	0.000000	96.000000	255.000000	112.000000	223.000000	240.000000	0.000000	0.000000	0.000000	1749122273.900420	0.000000
67.000000	-39356.236381	26066.067942	-28803.240216	0.000000	0.000000	0.000000	0.000000	0.000000	0.012000	-0.018000	-1.026000	192.000000	0.000000	0.000000	0.000000	0.000000	0.000000	0.000000	0.000000	0.000000	0.000000	1749122273.905363	0.000000
68.000000	-39345.395785	26051.919288	-28784.844730	0.000000	0.000000	0.000000	0.000000	0.000000	0.012000	-0.018000	-1.026000	192.000000	0.000000	0.000000	0.000000	0.000000	0.000000	0.000000	0.000000	0.000000	0.000000	1749122273.908461	0.000000
69.000000	-39335.248093	26039.491718	-28767.075094	0.000000	0.000000	0.000000	0.000000	0.000000	0.012000	-0.018000	-1.026000	192.000000	0.000000	0.000000	0.000000	0.000000	0.000000	0.000000	0.000000	0.000000	0.000000	1749122273.911490	0.000000
70.000000	-39336.119811	26042.866831	-28770.383152	0.000000	0.000000	0.000000	0.000000	0.000000	0.012000	-0.018000	-1.026000	192.000000	0.000000	0.000000	0.000000	0.000000	0.000000	0.000000	0.000000	0.000000	0.000000	1749122273.916481	0.000000
71.000000	-39345.418137	26055.964953	-28788.957451	0.000000	0.000000	0.000000	0.000000	0.000000	0.012000	-0.018000	-1.026000	192.000000	0.000000	0.000000	0.000000	0.000000	0.000000	0.000000	0.000000	0.000000	0.000000	1749122273.920482	0.000000
72.000000	-39349.329692	26059.809453	-28795.931196	0.000000	0.000000	0.000000	0.000000	0.000000	0.012000	-0.018000	-1.026000	192.000000	0.000000	0.000000	0.000000	0.000000	0.000000	0.000000	0.000000	0.000000	0.000000	1749122273.924406	0.000000
73.000000	-39339.338462	26046.778386	-28778.295669	0.000000	0.000000	0.000000	0.000000	0.000000	0.012000	-0.018000	-1.026000	192.000000	0.000000	0.000000	0.000000	0.000000	0.000000	0.000000	0.000000	0.000000	0.000000	1749122273.928467	0.000000
74.000000	-39330.643634	26035.937790	-28761.978896	0.000000	0.000000	0.000000	0.000000	0.000000	0.012000	-0.018000	-1.026000	192.000000	0.000000	0.000000	0.000000	0.000000	0.000000	0.000000	0.000000	0.000000	0.000000	1749122273.933641	0.000000
75.000000	-39333.325843	26040.899878	-28767.164501	0.000000	0.000000	0.000000	0.000000	0.000000	0.012000	-0.018000	-1.026000	192.000000	0.000000	0.000000	0.000000	0.000000	0.000000	0.000000	0.000000	0.000000	0.000000	1749122273.936464	0.000000
76.000000	-39342.333596	26053.528613	-28785.358821	0.000000	0.000000	0.000000	0.000000	0.000000	0.012000	-0.020000	-1.016000	192.000000	0.000000	96.000000	255.000000	96.000000	224.000000	64.000000	0.000000	0.000000	0.000000	1749122273.939541	0.000000
77.000000	-39346.200448	26057.171948	-28792.220806	0.000000	0.000000	0.000000	0.000000	0.000000	0.012000	-0.020000	-1.016000	192.000000	0.000000	0.000000	0.000000	0.000000	0.000000	0.000000	0.000000	0.000000	0.000000	1749122273.944522	0.000000
78.000000	-39339.316111	26046.934849	-28777.736876	0.000000	0.000000	0.000000	0.000000	0.000000	0.012000	-0.020000	-1.016000	192.000000	0.000000	0.000000	0.000000	0.000000	0.000000	0.000000	0.000000	0.000000	0.000000	1749122273.948444	0.000000
79.000000	-39328.341404	26034.037892	-28759.296687	0.000000	0.000000	0.000000	0.000000	0.000000	0.012000	-0.020000	-1.016000	192.000000	0.000000	0.000000	0.000000	0.000000	0.000000	0.000000	0.000000	0.000000	0.000000	1749122273.952622	0.000000
80.000000	-39328.989605	26037.569468	-28762.560041	0.000000	0.000000	0.000000	0.000000	0.000000	0.012000	-0.020000	-1.016000	192.000000	0.000000	0.000000	0.000000	0.000000	0.000000	0.000000	0.000000	0.000000	0.000000	1749122273.956485	0.000000
81.000000	-39338.980834	26051.405198	-28781.648431	0.000000	0.000000	0.000000	0.000000	0.000000	0.012000	-0.020000	-1.016000	192.000000	0.000000	0.000000	0.000000	0.000000	0.000000	0.000000	0.000000	0.000000	0.000000	1749122273.960559	0.000000
82.000000	-39341.439526	26053.662724	-28787.012850	0.000000	0.000000	0.000000	0.000000	0.000000	0.012000	-0.020000	-1.016000	192.000000	0.000000	0.000000	0.000000	0.000000	0.000000	0.000000	0.000000	0.000000	0.000000	1749122273.964560	0.000000
83.000000	-39334.756355	26043.425625	-28772.484216	0.000000	0.000000	0.000000	0.000000	0.000000	0.012000	-0.020000	-1.016000	192.000000	0.000000	0.000000	0.000000	0.000000	0.000000	0.000000	0.000000	0.000000	0.000000	1749122273.967474	0.000000
84.000000	-39326.262692	26032.719139	-28756.234498	0.000000	0.000000	0.000000	0.000000	0.000000	0.012000	-0.020000	-1.016000	192.000000	0.000000	0.000000	0.000000	0.000000	0.000000	0.000000	0.000000	0.000000	0.000000	1749122273.972502	0.000000
85.000000	-39327.693203	26035.893087	-28759.989591	0.000000	0.000000	0.000000	0.000000	0.000000	0.012000	-0.020000	-1.016000	192.000000	0.000000	0.000000	0.000000	0.000000	0.000000	0.000000	0.000000	0.000000	0.000000	1749122273.976474	0.000000
86.000000	-39337.885599	26049.929982	-28779.077980	0.000000	0.000000	0.000000	0.000000	0.000000	0.008000	-0.018000	-1.016000	192.000000	0.000000	64.000000	255.000000	112.000000	224.000000	64.000000	0.000000	0.000000	0.000000	1749122273.980588	0.000000
87.000000	-39340.791326	26052.813357	-28784.576510	0.000000	0.000000	0.000000	0.000000	0.000000	0.008000	-0.018000	-1.016000	192.000000	0.000000	0.000000	0.000000	0.000000	0.000000	0.000000	0.000000	0.000000	0.000000	1749122273.984603	0.000000
88.000000	-39331.113020	26039.715235	-28767.075094	0.000000	0.000000	0.000000	0.000000	0.000000	0.008000	-0.018000	-1.016000	192.000000	0.000000	0.000000	0.000000	0.000000	0.000000	0.000000	0.000000	0.000000	0.000000	1749122273.988506	0.000000
89.000000	-39321.993509	26028.606418	-28750.177175	0.000000	0.000000	0.000000	0.000000	0.000000	0.008000	-0.018000	-1.016000	192.000000	0.000000	0.000000	0.000000	0.000000	0.000000	0.000000	0.000000	0.000000	0.000000	1749122273.992583	0.000000
90.000000	-39324.765125	26033.456747	-28755.094559	0.000000	0.000000	0.000000	0.000000	0.000000	0.008000	-0.018000	-1.016000	192.000000	0.000000	0.000000	0.000000	0.000000	0.000000	0.000000	0.000000	0.000000	0.000000	1749122273.995582	0.000000
91.000000	-39334.532837	26046.554869	-28773.646507	0.000000	0.000000	0.000000	0.000000	0.000000	0.008000	-0.018000	-1.016000	192.000000	0.000000	0.000000	0.000000	0.000000	0.000000	0.000000	0.000000	0.000000	0.000000	1749122274.000521	0.000000
92.000000	-39337.818544	26049.639410	-28779.592071	0.000000	0.000000	0.000000	0.000000	0.000000	0.008000	-0.018000	-1.016000	192.000000	0.000000	0.000000	0.000000	0.000000	0.000000	0.000000	0.000000	0.000000	0.000000	1749122274.004557	0.000000
93.000000	-39330.151895	26038.307075	-28764.012905	0.000000	0.000000	0.000000	0.000000	0.000000	0.008000	-0.018000	-1.016000	192.000000	0.000000	0.000000	0.000000	0.000000	0.000000	0.000000	0.000000	0.000000	0.000000	1749122274.008576	0.000000
94.000000	-39320.630052	26026.728872	-28746.712654	0.000000	0.000000	0.000000	0.000000	0.000000	0.008000	-0.018000	-1.016000	192.000000	0.000000	0.000000	0.000000	0.000000	0.000000	0.000000	0.000000	0.000000	0.000000	1749122274.012557	0.000000
95.000000	-39321.702936	26030.081633	-28750.065416	0.000000	0.000000	0.000000	0.000000	0.000000	0.008000	-0.018000	-1.016000	192.000000	0.000000	0.000000	0.000000	0.000000	0.000000	0.000000	0.000000	0.000000	0.000000	1749122274.016643	0.000000
96.000000	-39330.867151	26043.000942	-28768.304440	0.000000	0.000000	0.000000	0.000000	0.000000	0.012000	-0.016000	-1.012000	192.000000	0.000000	96.000000	255.000000	128.000000	224.000000	96.000000	0.000000	0.000000	0.000000	1749122274.020738	0.000000
97.000000	-39334.443430	26047.136014	-28774.987611	0.000000	0.000000	0.000000	0.000000	0.000000	0.012000	-0.016000	-1.012000	192.000000	0.000000	0.000000	0.000000	0.000000	0.000000	0.000000	0.000000	0.000000	0.000000	1749122274.023591	0.000000
98.000000	-39324.586311	26034.216706	-28757.597954	0.000000	0.000000	0.000000	0.000000	0.000000	0.012000	-0.016000	-1.012000	192.000000	0.000000	0.000000	0.000000	0.000000	0.000000	0.000000	0.000000	0.000000	0.000000	1749122274.028688	0.000000
99.000000	-39315.958538	26023.510220	-28741.236477	0.000000	0.000000	0.000000	0.000000	0.000000	0.012000	-0.016000	-1.012000	192.000000	0.000000	0.000000	0.000000	0.000000	0.000000	0.000000	0.000000	0.000000	0.000000	1749122274.032675	0.000000
100.000000	-39318.819561	26028.673473	-28746.556192	0.000000	0.000000	0.000000	0.000000	0.000000	0.012000	-0.016000	-1.012000	192.000000	0.000000	0.000000	0.000000	0.000000	0.000000	0.000000	0.000000	0.000000	0.000000	1749122274.036826	0.000000
101.000000	-39327.603796	26040.855174	-28764.459940	0.000000	0.000000	0.000000	0.000000	0.000000	0.012000	-0.016000	-1.012000	192.000000	0.000000	0.000000	0.000000	0.000000	0.000000	0.000000	0.000000	0.000000	0.000000	1749122274.040745	0.000000
102.000000	-39331.627110	26045.079654	-28771.701905	0.000000	0.000000	0.000000	0.000000	0.000000	0.012000	-0.016000	-1.012000	192.000000	0.000000	0.000000	0.000000	0.000000	0.000000	0.000000	0.000000	0.000000	0.000000	1749122274.044651	0.000000
103.000000	-39323.379317	26033.814375	-28756.055684	0.000000	0.000000	0.000000	0.000000	0.000000	0.012000	-0.016000	-1.012000	192.000000	0.000000	0.000000	0.000000	0.000000	0.000000	0.000000	0.000000	0.000000	0.000000	1749122274.048643	0.000000
104.000000	-39313.052811	26021.878543	-28738.442509	0.000000	0.000000	0.000000	0.000000	0.000000	0.012000	-0.016000	-1.012000	192.000000	0.000000	0.000000	0.000000	0.000000	0.000000	0.000000	0.000000	0.000000	0.000000	1749122274.051651	0.000000
105.000000	-39317.657270	26029.679302	-28745.595067	0.000000	0.000000	0.000000	0.000000	0.000000	0.012000	-0.016000	-1.012000	192.000000	0.000000	0.000000	0.000000	0.000000	0.000000	0.000000	0.000000	0.000000	0.000000	1749122274.055656	0.000000
106.000000	-39326.620320	26042.822128	-28763.811739	0.000000	0.000000	0.000000	0.000000	0.000000	0.010000	-0.016000	-1.018000	192.000000	0.000000	80.000000	255.000000	128.000000	224.000000	48.000000	0.000000	0.000000	0.000000	1749122274.060635	0.000000
107.000000	-39328.095535	26044.699674	-28768.617364	0.000000	0.000000	0.000000	0.000000	0.000000	0.010000	-0.016000	-1.018000	192.000000	0.000000	0.000000	0.000000	0.000000	0.000000	0.000000	0.000000	0.000000	0.000000	1749122274.064679	0.000000
108.000000	-39318.149009	26031.489793	-28750.959486	0.000000	0.000000	0.000000	0.000000	0.000000	0.010000	-0.016000	-1.018000	192.000000	0.000000	0.000000	0.000000	0.000000	0.000000	0.000000	0.000000	0.000000	0.000000	1749122274.068675	0.000000
109.000000	-39307.241357	26018.414023	-28731.960503	0.000000	0.000000	0.000000	0.000000	0.000000	0.010000	-0.016000	-1.018000	192.000000	0.000000	0.000000	0.000000	0.000000	0.000000	0.000000	0.000000	0.000000	0.000000	1749122274.072688	0.000000
110.000000	-39308.180131	26021.655026	-28734.598009	0.000000	0.000000	0.000000	0.000000	0.000000	0.010000	-0.016000	-1.018000	192.000000	0.000000	0.000000	0.000000	0.000000	0.000000	0.000000	0.000000	0.000000	0.000000	1749122274.076738	0.000000
111.000000	-39319.266596	26036.138956	-28754.267544	0.000000	0.000000	0.000000	0.000000	0.000000	0.010000	-0.016000	-1.018000	192.000000	0.000000	0.000000	0.000000	0.000000	0.000000	0.000000	0.000000	0.000000	0.000000	1749122274.079796	0.000000
112.000000	-39326.910892	26043.537384	-28764.661105	0.000000	0.000000	0.000000	0.000000	0.000000	0.010000	-0.016000	-1.018000	192.000000	0.000000	0.000000	0.000000	0.000000	0.000000	0.000000	0.000000	0.000000	0.000000	1749122274.083826	0.000000
113.000000	-39320.004203	26033.210878	-28749.864250	0.000000	0.000000	0.000000	0.000000	0.000000	0.010000	-0.016000	-1.018000	192.000000	0.000000	0.000000	0.000000	0.000000	0.000000	0.000000	0.000000	0.000000	0.000000	1749122274.088710	0.000000
114.000000	-39311.041154	26021.878543	-28732.675759	0.000000	0.000000	0.000000	0.000000	0.000000	0.010000	-0.016000	-1.018000	192.000000	0.000000	0.000000	0.000000	0.000000	0.000000	0.000000	0.000000	0.000000	0.000000	1749122274.092721	0.000000
115.000000	-39313.745715	26027.019444	-28737.123756	0.000000	0.000000	0.000000	0.000000	0.000000	0.010000	-0.016000	-1.018000	192.000000	0.000000	0.000000	0.000000	0.000000	0.000000	0.000000	0.000000	0.000000	0.000000	1749122274.096856	0.000000
116.000000	-39325.346270	26042.129224	-28757.486195	0.000000	0.000000	0.000000	0.000000	0.000000	0.010000	-0.018000	-1.014000	192.000000	0.000000	80.000000	255.000000	112.000000	224.000000	80.000000	0.000000	0.000000	0.000000	1749122274.100857	0.000000
117.000000	-39326.352099	26042.553907	-28761.196585	0.000000	0.000000	0.000000	0.000000	0.000000	0.010000	-0.018000	-1.014000	192.000000	0.000000	0.000000	0.000000	0.000000	0.000000	0.000000	0.000000	0.000000	0.000000	1749122274.103959	0.000000
118.000000	-39316.517331	26029.344026	-28743.650465	0.000000	0.000000	0.000000	0.000000	0.000000	0.010000	-0.018000	-1.014000	192.000000	0.000000	0.000000	0.000000	0.000000	0.000000	0.000000	0.000000	0.000000	0.000000	1749122274.107814	0.000000
119.000000	-39308.805979	26019.486906	-28727.959541	0.000000	0.000000	0.000000	0.000000	0.000000	0.010000	-0.018000	-1.014000	192.000000	0.000000	0.000000	0.000000	0.000000	0.000000	0.000000	0.000000	0.000000	0.000000	1749122274.111815	0.000000
120.000000	-39310.392953	26023.554924	-28731.535820	0.000000	0.000000	0.000000	0.000000	0.000000	0.010000	-0.018000	-1.014000	192.000000	0.000000	0.000000	0.000000	0.000000	0.000000	0.000000	0.000000	0.000000	0.000000	1749122274.116811	0.000000
121.000000	-39320.115962	26037.413006	-28750.043064	0.000000	0.000000	0.000000	0.000000	0.000000	0.010000	-0.018000	-1.014000	192.000000	0.000000	0.000000	0.000000	0.000000	0.000000	0.000000	0.000000	0.000000	0.000000	1749122274.120895	0.000000
122.000000	-39322.976985	26040.519898	-28756.055684	0.000000	0.000000	0.000000	0.000000	0.000000	0.010000	-0.018000	-1.014000	192.000000	0.000000	0.000000	0.000000	0.000000	0.000000	0.000000	0.000000	0.000000	0.000000	1749122274.124909	0.000000
123.000000	-39314.975061	26029.634598	-28740.856497	0.000000	0.000000	0.000000	0.000000	0.000000	0.010000	-0.018000	-1.014000	192.000000	0.000000	0.000000	0.000000	0.000000	0.000000	0.000000	0.000000	0.000000	0.000000	1749122274.128837	0.000000
124.000000	-39307.375468	26020.269218	-28725.612608	0.000000	0.000000	0.000000	0.000000	0.000000	0.010000	-0.018000	-1.014000	192.000000	0.000000	0.000000	0.000000	0.000000	0.000000	0.000000	0.000000	0.000000	0.000000	1749122274.131833	0.000000
125.000000	-39308.001317	26023.577276	-28728.674797	0.000000	0.000000	0.000000	0.000000	0.000000	0.012000	-0.020000	-1.014000	192.000000	0.000000	96.000000	255.000000	96.000000	224.000000	80.000000	0.000000	0.000000	0.000000	1749122274.135808	0.000000
126.000000	-39317.612567	26037.278895	-28747.494965	0.000000	0.000000	0.000000	0.000000	0.000000	0.012000	-0.020000	-1.014000	192.000000	0.000000	0.000000	0.000000	0.000000	0.000000	0.000000	0.000000	0.000000	0.000000	1749122274.139910	0.000000
127.000000	-39319.043078	26039.022331	-28752.389998	0.000000	0.000000	0.000000	0.000000	0.000000	0.012000	-0.020000	-1.014000	192.000000	0.000000	0.000000	0.000000	0.000000	0.000000	0.000000	0.000000	0.000000	0.000000	1749122274.143872	0.000000
128.000000	-39308.627165	26025.767747	-28734.821526	0.000000	0.000000	0.000000	0.000000	0.000000	0.012000	-0.020000	-1.014000	192.000000	0.000000	0.000000	0.000000	0.000000	0.000000	0.000000	0.000000	0.000000	0.000000	1749122274.148844	0.000000
129.000000	-39298.412418	26014.077784	-28717.051890	0.000000	0.000000	0.000000	0.000000	0.000000	0.012000	-0.020000	-1.014000	192.000000	0.000000	0.000000	0.000000	0.000000	0.000000	0.000000	0.000000	0.000000	0.000000	1749122274.152870	0.000000
130.000000	-39299.105322	26017.542305	-28719.979968	0.000000	0.000000	0.000000	0.000000	0.000000	0.012000	-0.020000	-1.014000	192.000000	0.000000	0.000000	0.000000	0.000000	0.000000	0.000000	0.000000	0.000000	0.000000	1749122274.157399	0.000000
131.000000	-39307.129599	26029.433433	-28737.079053	0.000000	0.000000	0.000000	0.000000	0.000000	0.012000	-0.020000	-1.014000	192.000000	0.000000	0.000000	0.000000	0.000000	0.000000	0.000000	0.000000	0.000000	0.000000	1749122274.159886	0.000000
132.000000	-39310.258843	26032.808546	-28743.471651	0.000000	0.000000	0.000000	0.000000	0.000000	0.012000	-0.020000	-1.014000	192.000000	0.000000	0.000000	0.000000	0.000000	0.000000	0.000000	0.000000	0.000000	0.000000	1749122274.166189	0.000000
133.000000	-39305.766142	26024.873677	-28731.334654	0.000000	0.000000	0.000000	0.000000	0.000000	0.012000	-0.020000	-1.014000	192.000000	0.000000	0.000000	0.000000	0.000000	0.000000	0.000000	0.000000	0.000000	0.000000	1749122274.167882	0.000000
134.000000	-39298.591232	26015.105965	-28715.889599	0.000000	0.000000	0.000000	0.000000	0.000000	0.012000	-0.020000	-1.014000	192.000000	0.000000	0.000000	0.000000	0.000000	0.000000	0.000000	0.000000	0.000000	0.000000	1749122274.171934	0.000000
135.000000	-39300.088799	26018.682244	-28718.817677	0.000000	0.000000	0.000000	0.000000	0.000000	0.016000	-0.020000	-1.014000	192.000000	0.000000	128.000000	255.000000	96.000000	224.000000	80.000000	0.000000	0.000000	0.000000	1749122274.176866	0.000000
136.000000	-39310.214139	26032.182697	-28737.503736	0.000000	0.000000	0.000000	0.000000	0.000000	0.016000	-0.020000	-1.014000	192.000000	0.000000	0.000000	0.000000	0.000000	0.000000	0.000000	0.000000	0.000000	0.000000	1749122274.180917	0.000000
137.000000	-39310.974099	26032.763843	-28741.303532	0.000000	0.000000	0.000000	0.000000	0.000000	0.016000	-0.020000	-1.014000	192.000000	0.000000	0.000000	0.000000	0.000000	0.000000	0.000000	0.000000	0.000000	0.000000	1749122274.185046	0.000000
138.000000	-39299.977040	26018.458726	-28722.751584	0.000000	0.000000	0.000000	0.000000	0.000000	0.016000	-0.020000	-1.014000	192.000000	0.000000	0.000000	0.000000	0.000000	0.000000	0.000000	0.000000	0.000000	0.000000	1749122274.187921	0.000000
139.000000	-39291.483377	26007.729889	-28706.166590	0.000000	0.000000	0.000000	0.000000	0.000000	0.016000	-0.020000	-1.014000	192.000000	0.000000	0.000000	0.000000	0.000000	0.000000	0.000000	0.000000	0.000000	0.000000	1749122274.191950	0.000000
140.000000	-39295.506691	26014.100136	-28711.888637	0.000000	0.000000	0.000000	0.000000	0.000000	0.016000	-0.020000	-1.014000	192.000000	0.000000	0.000000	0.000000	0.000000	0.000000	0.000000	0.000000	0.000000	0.000000	1749122274.195945	0.000000
141.000000	-39304.447389	26026.572409	-28729.613570	0.000000	0.000000	0.000000	0.000000	0.000000	0.016000	-0.020000	-1.014000	192.000000	0.000000	0.000000	0.000000	0.000000	0.000000	0.000000	0.000000	0.000000	0.000000	1749122274.200021	0.000000
142.000000	-39307.084895	26029.098157	-28735.425023	0.000000	0.000000	0.000000	0.000000	0.000000	0.016000	-0.020000	-1.014000	192.000000	0.000000	0.000000	0.000000	0.000000	0.000000	0.000000	0.000000	0.000000	0.000000	1749122274.204989	0.000000
143.000000	-39300.848758	26019.397499	-28721.589294	0.000000	0.000000	0.000000	0.000000	0.000000	0.016000	-0.020000	-1.014000	192.000000	0.000000	0.000000	0.000000	0.000000	0.000000	0.000000	0.000000	0.000000	0.000000	1749122274.208986	0.000000
144.000000	-39292.533909	26008.579255	-28705.227817	0.000000	0.000000	0.000000	0.000000	0.000000	0.016000	-0.020000	-1.014000	192.000000	0.000000	0.000000	0.000000	0.000000	0.000000	0.000000	0.000000	0.000000	0.000000	1749122274.212032	0.000000
145.000000	-39296.087837	26014.278950	-28710.614587	0.000000	0.000000	0.000000	0.000000	0.000000	0.014000	-0.024000	-1.010000	192.000000	0.000000	112.000000	255.000000	64.000000	224.000000	112.000000	0.000000	0.000000	0.000000	1749122274.215969	0.000000
146.000000	-39305.140293	26027.153555	-28728.786555	0.000000	0.000000	0.000000	0.000000	0.000000	0.014000	-0.024000	-1.010000	192.000000	0.000000	0.000000	0.000000	0.000000	0.000000	0.000000	0.000000	0.000000	0.000000	1749122274.220079	0.000000
147.000000	-39306.034363	26028.517011	-28733.413366	0.000000	0.000000	0.000000	0.000000	0.000000	0.014000	-0.024000	-1.010000	192.000000	0.000000	0.000000	0.000000	0.000000	0.000000	0.000000	0.000000	0.000000	0.000000	1749122274.224988	0.000000
148.000000	-39296.490168	26015.955331	-28717.051890	0.000000	0.000000	0.000000	0.000000	0.000000	0.014000	-0.024000	-1.010000	192.000000	0.000000	0.000000	0.000000	0.000000	0.000000	0.000000	0.000000	0.000000	0.000000	1749122274.228004	0.000000
149.000000	-39287.974154	26005.561770	-28701.249206	0.000000	0.000000	0.000000	0.000000	0.000000	0.014000	-0.024000	-1.010000	192.000000	0.000000	0.000000	0.000000	0.000000	0.000000	0.000000	0.000000	0.000000	0.000000	1749122274.231998	0.000000
150.000000	-39290.008162	26010.456802	-28705.630148	0.000000	0.000000	0.000000	0.000000	0.000000	0.014000	-0.024000	-1.010000	192.000000	0.000000	0.000000	0.000000	0.000000	0.000000	0.000000	0.000000	0.000000	0.000000	1749122274.236037	0.000000
151.000000	-39298.747694	26023.331407	-28723.645654	0.000000	0.000000	0.000000	0.000000	0.000000	0.014000	-0.024000	-1.010000	192.000000	0.000000	0.000000	0.000000	0.000000	0.000000	0.000000	0.000000	0.000000	0.000000	1749122274.240021	0.000000
152.000000	-39301.921642	26026.684168	-28730.462936	0.000000	0.000000	0.000000	0.000000	0.000000	0.014000	-0.024000	-1.010000	192.000000	0.000000	0.000000	0.000000	0.000000	0.000000	0.000000	0.000000	0.000000	0.000000	1749122274.244082	0.000000
153.000000	-39294.232642	26015.843572	-28715.442564	0.000000	0.000000	0.000000	0.000000	0.000000	0.014000	-0.024000	-1.010000	192.000000	0.000000	0.000000	0.000000	0.000000	0.000000	0.000000	0.000000	0.000000	0.000000	1749122274.249114	0.000000
154.000000	-39286.007200	26005.204142	-28699.192846	0.000000	0.000000	0.000000	0.000000	0.000000	0.014000	-0.024000	-1.010000	192.000000	0.000000	0.000000	0.000000	0.000000	0.000000	0.000000	0.000000	0.000000	0.000000	1749122274.253037	0.000000
155.000000	-39289.427017	26010.792078	-28704.311395	0.000000	0.000000	0.000000	0.000000	0.000000	0.014000	-0.020000	-1.010000	192.000000	0.000000	112.000000	255.000000	96.000000	224.000000	112.000000	0.000000	0.000000	0.000000	1749122274.256080	0.000000
156.000000	-39298.568880	26023.420813	-28722.304549	0.000000	0.000000	0.000000	0.000000	0.000000	0.014000	-0.020000	-1.010000	192.000000	0.000000	0.000000	0.000000	0.000000	0.000000	0.000000	0.000000	0.000000	0.000000	1749122274.260146	0.000000
157.000000	-39300.021744	26024.516049	-28727.221933	0.000000	0.000000	0.000000	0.000000	0.000000	0.014000	-0.020000	-1.010000	192.000000	0.000000	0.000000	0.000000	0.000000	0.000000	0.000000	0.000000	0.000000	0.000000	1749122274.264091	0.000000
158.000000	-39292.936241	26013.943674	-28712.872113	0.000000	0.000000	0.000000	0.000000	0.000000	0.014000	-0.020000	-1.010000	192.000000	0.000000	0.000000	0.000000	0.000000	0.000000	0.000000	0.000000	0.000000	0.000000	1749122274.268125	0.000000
159.000000	-39285.001372	26003.661871	-28696.845913	0.000000	0.000000	0.000000	0.000000	0.000000	0.014000	-0.020000	-1.010000	192.000000	0.000000	0.000000	0.000000	0.000000	0.000000	0.000000	0.000000	0.000000	0.000000	1749122274.272244	0.000000
160.000000	-39287.191842	26007.685185	-28700.645709	0.000000	0.000000	0.000000	0.000000	0.000000	0.014000	-0.020000	-1.010000	192.000000	0.000000	0.000000	0.000000	0.000000	0.000000	0.000000	0.000000	0.000000	0.000000	1749122274.276168	0.000000
161.000000	-39298.300659	26022.370282	-28720.628169	0.000000	0.000000	0.000000	0.000000	0.000000	0.014000	-0.020000	-1.010000	192.000000	0.000000	0.000000	0.000000	0.000000	0.000000	0.000000	0.000000	0.000000	0.000000	1749122274.281154	0.000000
162.000000	-39301.564014	26025.678340	-28727.065471	0.000000	0.000000	0.000000	0.000000	0.000000	0.014000	-0.020000	-1.010000	192.000000	0.000000	0.000000	0.000000	0.000000	0.000000	0.000000	0.000000	0.000000	0.000000	1749122274.284167	0.000000
163.000000	-39290.991639	26011.708499	-28709.049965	0.000000	0.000000	0.000000	0.000000	0.000000	0.014000	-0.020000	-1.010000	192.000000	0.000000	0.000000	0.000000	0.000000	0.000000	0.000000	0.000000	0.000000	0.000000	1749122274.288131	0.000000
164.000000	-39278.139386	25996.531665	-28687.860511	0.000000	0.000000	0.000000	0.000000	0.000000	0.014000	-0.020000	-1.010000	192.000000	0.000000	0.000000	0.000000	0.000000	0.000000	0.000000	0.000000	0.000000	0.000000	1749122274.292180	0.000000
165.000000	-39278.988752	25999.392688	-28690.140389	0.000000	0.000000	0.000000	0.000000	0.000000	0.010000	-0.022000	-1.010000	192.000000	0.000000	80.000000	255.000000	80.000000	224.000000	112.000000	0.000000	0.000000	0.000000	1749122274.296365	0.000000
166.000000	-39288.577651	26012.468459	-28708.401764	0.000000	0.000000	0.000000	0.000000	0.000000	0.010000	-0.022000	-1.010000	192.000000	0.000000	0.000000	0.000000	0.000000	0.000000	0.000000	0.000000	0.000000	0.000000	1749122274.300236	0.000000
167.000000	-39293.003296	26016.804697	-28716.426041	0.000000	0.000000	0.000000	0.000000	0.000000	0.010000	-0.022000	-1.010000	192.000000	0.000000	0.000000	0.000000	0.000000	0.000000	0.000000	0.000000	0.000000	0.000000	1749122274.304190	0.000000
168.000000	-39283.459101	26003.863037	-28699.662232	0.000000	0.000000	0.000000	0.000000	0.000000	0.010000	-0.022000	-1.010000	192.000000	0.000000	0.000000	0.000000	0.000000	0.000000	0.000000	0.000000	0.000000	0.000000	1749122274.309270	0.000000
169.000000	-39275.479528	25993.692993	-28683.747790	0.000000	0.000000	0.000000	0.000000	0.000000	0.010000	-0.022000	-1.010000	192.000000	0.000000	0.000000	0.000000	0.000000	0.000000	0.000000	0.000000	0.000000	0.000000	1749122274.312270	0.000000
170.000000	-39278.966401	25999.683261	-28688.978099	0.000000	0.000000	0.000000	0.000000	0.000000	0.010000	-0.022000	-1.010000	192.000000	0.000000	0.000000	0.000000	0.000000	0.000000	0.000000	0.000000	0.000000	0.000000	1749122274.316266	0.000000
171.000000	-39287.080084	26011.730851	-28706.278349	0.000000	0.000000	0.000000	0.000000	0.000000	0.010000	-0.022000	-1.010000	192.000000	0.000000	0.000000	0.000000	0.000000	0.000000	0.000000	0.000000	0.000000	0.000000	1749122274.320240	0.000000
172.000000	-39291.237508	26016.201200	-28714.503791	0.000000	0.000000	0.000000	0.000000	0.000000	0.010000	-0.022000	-1.010000	192.000000	0.000000	0.000000	0.000000	0.000000	0.000000	0.000000	0.000000	0.000000	0.000000	1749122274.324211	0.000000
173.000000	-39281.916831	26003.751278	-28698.276424	0.000000	0.000000	0.000000	0.000000	0.000000	0.010000	-0.022000	-1.010000	192.000000	0.000000	0.000000	0.000000	0.000000	0.000000	0.000000	0.000000	0.000000	0.000000	1749122274.328320	0.000000
174.000000	-39271.880898	25991.726040	-28680.439732	0.000000	0.000000	0.000000	0.000000	0.000000	0.010000	-0.014000	-1.012000	192.000000	0.000000	80.000000	255.000000	144.000000	224.000000	96.000000	0.000000	0.000000	0.000000	1749122274.332354	0.000000
175.000000	-39273.222002	25995.749354	-28683.636032	0.000000	0.000000	0.000000	0.000000	0.000000	0.010000	-0.014000	-1.012000	192.000000	0.000000	0.000000	0.000000	0.000000	0.000000	0.000000	0.000000	0.000000	0.000000	1749122274.337298	0.000000
176.000000	-39284.107302	26010.590912	-28703.551436	0.000000	0.000000	0.000000	0.000000	0.000000	0.010000	-0.014000	-1.012000	192.000000	0.000000	0.000000	0.000000	0.000000	0.000000	0.000000	0.000000	0.000000	0.000000	1749122274.340418	0.000000
177.000000	-39286.789511	26013.362528	-28709.854628	0.000000	0.000000	0.000000	0.000000	0.000000	0.010000	-0.014000	-1.012000	192.000000	0.000000	0.000000	0.000000	0.000000	0.000000	0.000000	0.000000	0.000000	0.000000	1749122274.344229	0.000000
178.000000	-39276.798281	25999.951482	-28692.643785	0.000000	0.000000	0.000000	0.000000	0.000000	0.010000	-0.014000	-1.012000	192.000000	0.000000	0.000000	0.000000	0.000000	0.000000	0.000000	0.000000	0.000000	0.000000	1749122274.348310	0.000000
179.000000	-39265.801223	25986.451028	-28673.510691	0.000000	0.000000	0.000000	0.000000	0.000000	0.010000	-0.014000	-1.012000	192.000000	0.000000	0.000000	0.000000	0.000000	0.000000	0.000000	0.000000	0.000000	0.000000	1749122274.352228	0.000000
180.000000	-39267.410549	25990.183769	-28676.751694	0.000000	0.000000	0.000000	0.000000	0.000000	0.010000	-0.014000	-1.012000	192.000000	0.000000	0.000000	0.000000	0.000000	0.000000	0.000000	0.000000	0.000000	0.000000	1749122274.356308	0.000000
181.000000	-39278.206441	26004.466534	-28696.488285	0.000000	0.000000	0.000000	0.000000	0.000000	0.010000	-0.014000	-1.012000	192.000000	0.000000	0.000000	0.000000	0.000000	0.000000	0.000000	0.000000	0.000000	0.000000	1749122274.360344	0.000000
182.000000	-39281.603906	26007.975758	-28703.573788	0.000000	0.000000	0.000000	0.000000	0.000000	0.010000	-0.014000	-1.012000	192.000000	0.000000	0.000000	0.000000	0.000000	0.000000	0.000000	0.000000	0.000000	0.000000	1749122274.365352	0.000000
183.000000	-39272.216174	25995.391726	-28687.033497	0.000000	0.000000	0.000000	0.000000	0.000000	0.010000	-0.014000	-1.012000	192.000000	0.000000	0.000000	0.000000	0.000000	0.000000	0.000000	0.000000	0.000000	0.000000	1749122274.368250	0.000000
184.000000	-39262.537868	25983.254729	-28669.152101	0.000000	0.000000	0.000000	0.000000	0.000000	0.008000	-0.014000	-1.018000	192.000000	0.000000	64.000000	255.000000	144.000000	224.000000	48.000000	0.000000	0.000000	0.000000	1749122274.371252	0.000000
185.000000	-39264.169546	25986.942767	-28672.348401	0.000000	0.000000	0.000000	0.000000	0.000000	0.008000	-0.014000	-1.018000	192.000000	0.000000	0.000000	0.000000	0.000000	0.000000	0.000000	0.000000	0.000000	0.000000	1749122274.376410	0.000000
186.000000	-39276.150081	26002.320767	-28692.934357	0.000000	0.000000	0.000000	0.000000	0.000000	0.008000	-0.014000	-1.018000	192.000000	0.000000	0.000000	0.000000	0.000000	0.000000	0.000000	0.000000	0.000000	0.000000	1749122274.380523	0.000000
187.000000	-39280.441616	26006.612302	-28700.578654	0.000000	0.000000	0.000000	0.000000	0.000000	0.008000	-0.014000	-1.018000	192.000000	0.000000	0.000000	0.000000	0.000000	0.000000	0.000000	0.000000	0.000000	0.000000	1749122274.384397	0.000000
188.000000	-39271.813842	25994.587063	-28684.574805	0.000000	0.000000	0.000000	0.000000	0.000000	0.008000	-0.014000	-1.018000	192.000000	0.000000	0.000000	0.000000	0.000000	0.000000	0.000000	0.000000	0.000000	0.000000	1749122274.388301	0.000000
189.000000	-39260.682674	25980.460761	-28664.905270	0.000000	0.000000	0.000000	0.000000	0.000000	0.008000	-0.014000	-1.018000	192.000000	0.000000	0.000000	0.000000	0.000000	0.000000	0.000000	0.000000	0.000000	0.000000	1749122274.393301	0.000000
190.000000	-39261.330874	25982.897101	-28666.827520	0.000000	0.000000	0.000000	0.000000	0.000000	0.008000	-0.014000	-1.018000	192.000000	0.000000	0.000000	0.000000	0.000000	0.000000	0.000000	0.000000	0.000000	0.000000	1749122274.396402	0.000000
191.000000	-39272.529098	25997.716307	-28686.921738	0.000000	0.000000	0.000000	0.000000	0.000000	0.008000	-0.014000	-1.018000	192.000000	0.000000	0.000000	0.000000	0.000000	0.000000	0.000000	0.000000	0.000000	0.000000	1749122274.399376	0.000000
192.000000	-39278.497014	26003.885389	-28696.555340	0.000000	0.000000	0.000000	0.000000	0.000000	0.008000	-0.014000	-1.018000	192.000000	0.000000	0.000000	0.000000	0.000000	0.000000	0.000000	0.000000	0.000000	0.000000	1749122274.404483	0.000000
193.000000	-39269.980999	25992.351889	-28681.020877	0.000000	0.000000	0.000000	0.000000	0.000000	0.008000	-0.014000	-1.018000	192.000000	0.000000	0.000000	0.000000	0.000000	0.000000	0.000000	0.000000	0.000000	0.000000	1749122274.408407	0.000000
194.000000	-39259.095700	25979.454932	-28662.245412	0.000000	0.000000	0.000000	0.000000	0.000000	0.008000	-0.016000	-1.010000	192.000000	0.000000	64.000000	255.000000	128.000000	224.000000	112.000000	0.000000	0.000000	0.000000	1749122274.412399	0.000000
195.000000	-39258.939237	25981.332479	-28663.698276	0.000000	0.000000	0.000000	0.000000	0.000000	0.008000	-0.016000	-1.010000	192.000000	0.000000	0.000000	0.000000	0.000000	0.000000	0.000000	0.000000	0.000000	0.000000	1749122274.416509	0.000000
196.000000	-39270.405682	25996.531665	-28684.351287	0.000000	0.000000	0.000000	0.000000	0.000000	0.008000	-0.016000	-1.010000	192.000000	0.000000	0.000000	0.000000	0.000000	0.000000	0.000000	0.000000	0.000000	0.000000	1749122274.420461	0.000000
197.000000	-39273.646685	26000.286758	-28691.660308	0.000000	0.000000	0.000000	0.000000	0.000000	0.008000	-0.016000	-1.010000	192.000000	0.000000	0.000000	0.000000	0.000000	0.000000	0.000000	0.000000	0.000000	0.000000	1749122274.424490	0.000000
198.000000	-39263.990732	25987.546264	-28674.918851	0.000000	0.000000	0.000000	0.000000	0.000000	0.008000	-0.016000	-1.010000	192.000000	0.000000	0.000000	0.000000	0.000000	0.000000	0.000000	0.000000	0.000000	0.000000	1749122274.427465	0.000000
199.000000	-39255.742938	25976.929185	-28658.602078	0.000000	0.000000	0.000000	0.000000	0.000000	0.008000	-0.016000	-1.010000	192.000000	0.000000	0.000000	0.000000	0.000000	0.000000	0.000000	0.000000	0.000000	0.000000	1749122274.432391	0.000000
200.000000	-39260.369749	25983.701764	-28664.905270	0.000000	0.000000	0.000000	0.000000	0.000000	0.008000	-0.016000	-1.010000	192.000000	0.000000	0.000000	0.000000	0.000000	0.000000	0.000000	0.000000	0.000000	0.000000	1749122274.436540	0.000000
201.000000	-39271.635028	25999.057412	-28685.290061	0.000000	0.000000	0.000000	0.000000	0.000000	0.008000	-0.016000	-1.010000	192.000000	0.000000	0.000000	0.000000	0.000000	0.000000	0.000000	0.000000	0.000000	0.000000	1749122274.440413	0.000000
202.000000	-39274.026665	26001.985491	-28691.660308	0.000000	0.000000	0.000000	0.000000	0.000000	0.008000	-0.016000	-1.010000	192.000000	0.000000	0.000000	0.000000	0.000000	0.000000	0.000000	0.000000	0.000000	0.000000	1749122274.444436	0.000000
203.000000	-39264.482470	25989.088534	-28675.187072	0.000000	0.000000	0.000000	0.000000	0.000000	0.008000	-0.016000	-1.010000	192.000000	0.000000	0.000000	0.000000	0.000000	0.000000	0.000000	0.000000	0.000000	0.000000	1749122274.448445	0.000000
204.000000	-39253.865391	25975.923357	-28656.433959	0.000000	0.000000	0.000000	0.000000	0.000000	0.008000	-0.014000	-1.014000	192.000000	0.000000	64.000000	255.000000	144.000000	224.000000	80.000000	0.000000	0.000000	0.000000	1749122274.452434	0.000000
205.000000	-39253.954798	25977.935014	-28658.043284	0.000000	0.000000	0.000000	0.000000	0.000000	0.008000	-0.014000	-1.014000	192.000000	0.000000	0.000000	0.000000	0.000000	0.000000	0.000000	0.000000	0.000000	0.000000	1749122274.455477	0.000000
206.000000	-39263.431938	25990.921377	-28676.327011	0.000000	0.000000	0.000000	0.000000	0.000000	0.008000	-0.014000	-1.014000	192.000000	0.000000	0.000000	0.000000	0.000000	0.000000	0.000000	0.000000	0.000000	0.000000	1749122274.460467	0.000000
207.000000	-39266.270610	25994.050621	-28682.809017	0.000000	0.000000	0.000000	0.000000	0.000000	0.008000	-0.014000	-1.014000	192.000000	0.000000	0.000000	0.000000	0.000000	0.000000	0.000000	0.000000	0.000000	0.000000	1749122274.464507	0.000000
208.000000	-39259.565086	25984.037040	-28668.794473	0.000000	0.000000	0.000000	0.000000	0.000000	0.008000	-0.014000	-1.014000	192.000000	0.000000	0.000000	0.000000	0.000000	0.000000	0.000000	0.000000	0.000000	0.000000	1749122274.468518	0.000000
209.000000	-39251.943141	25973.866996	-28652.790624	0.000000	0.000000	0.000000	0.000000	0.000000	0.008000	-0.014000	-1.014000	192.000000	0.000000	0.000000	0.000000	0.000000	0.000000	0.000000	0.000000	0.000000	0.000000	1749122274.472557	0.000000
210.000000	-39254.781813	25978.538511	-28656.813938	0.000000	0.000000	0.000000	0.000000	0.000000	0.008000	-0.014000	-1.014000	192.000000	0.000000	0.000000	0.000000	0.000000	0.000000	0.000000	0.000000	0.000000	0.000000	1749122274.476683	0.000000
211.000000	-39266.225906	25993.380069	-28676.818750	0.000000	0.000000	0.000000	0.000000	0.000000	0.008000	-0.014000	-1.014000	192.000000	0.000000	0.000000	0.000000	0.000000	0.000000	0.000000	0.000000	0.000000	0.000000	1749122274.480600	0.000000
212.000000	-39271.322104	25998.565674	-28685.424171	0.000000	0.000000	0.000000	0.000000	0.000000	0.008000	-0.014000	-1.014000	192.000000	0.000000	0.000000	0.000000	0.000000	0.000000	0.000000	0.000000	0.000000	0.000000	1749122274.483471	0.000000
213.000000	-39260.973246	25984.528778	-28667.654534	0.000000	0.000000	0.000000	0.000000	0.000000	0.008000	-0.014000	-1.014000	192.000000	0.000000	0.000000	0.000000	0.000000	0.000000	0.000000	0.000000	0.000000	0.000000	1749122274.487583	0.000000
214.000000	-39250.713796	25971.520063	-28649.057883	0.000000	0.000000	0.000000	0.000000	0.000000	0.008000	-0.014000	-1.016000	192.000000	0.000000	64.000000	255.000000	144.000000	224.000000	64.000000	0.000000	0.000000	0.000000	1749122274.492622	0.000000
215.000000	-39252.367825	25975.141045	-28652.008313	0.000000	0.000000	0.000000	0.000000	0.000000	0.008000	-0.014000	-1.016000	192.000000	0.000000	0.000000	0.000000	0.000000	0.000000	0.000000	0.000000	0.000000	0.000000	1749122274.496503	0.000000
216.000000	-39261.040301	25987.568615	-28669.733247	0.000000	0.000000	0.000000	0.000000	0.000000	0.008000	-0.014000	-1.016000	192.000000	0.000000	0.000000	0.000000	0.000000	0.000000	0.000000	0.000000	0.000000	0.000000	1749122274.500620	0.000000
217.000000	-39266.114147	25993.201255	-28678.830407	0.000000	0.000000	0.000000	0.000000	0.000000	0.008000	-0.014000	-1.016000	192.000000	0.000000	0.000000	0.000000	0.000000	0.000000	0.000000	0.000000	0.000000	0.000000	1749122274.504528	0.000000
218.000000	-39256.525249	25980.773685	-28662.468930	0.000000	0.000000	0.000000	0.000000	0.000000	0.008000	-0.014000	-1.016000	192.000000	0.000000	0.000000	0.000000	0.000000	0.000000	0.000000	0.000000	0.000000	0.000000	1749122274.508755	0.000000
219.000000	-39248.903304	25970.938918	-28646.733301	0.000000	0.000000	0.000000	0.000000	0.000000	0.008000	-0.014000	-1.016000	192.000000	0.000000	0.000000	0.000000	0.000000	0.000000	0.000000	0.000000	0.000000	0.000000	1749122274.511735	0.000000
220.000000	-39250.579685	25975.006935	-28649.996656	0.000000	0.000000	0.000000	0.000000	0.000000	0.008000	-0.014000	-1.016000	192.000000	0.000000	0.000000	0.000000	0.000000	0.000000	0.000000	0.000000	0.000000	0.000000	1749122274.515636	0.000000
221.000000	-39258.782775	25987.032174	-28667.341610	0.000000	0.000000	0.000000	0.000000	0.000000	0.008000	-0.014000	-1.016000	192.000000	0.000000	0.000000	0.000000	0.000000	0.000000	0.000000	0.000000	0.000000	0.000000	1749122274.520626	0.000000
222.000000	-39261.286171	25989.781438	-28673.957726	0.000000	0.000000	0.000000	0.000000	0.000000	0.008000	-0.014000	-1.016000	192.000000	0.000000	0.000000	0.000000	0.000000	0.000000	0.000000	0.000000	0.000000	0.000000	1749122274.524591	0.000000
223.000000	-39253.396005	25978.873787	-28659.250278	0.000000	0.000000	0.000000	0.000000	0.000000	0.008000	-0.014000	-1.016000	192.000000	0.000000	0.000000	0.000000	0.000000	0.000000	0.000000	0.000000	0.000000	0.000000	1749122274.528574	0.000000
224.000000	-39245.036452	25968.234356	-28642.866450	0.000000	0.000000	0.000000	0.000000	0.000000	0.014000	-0.016000	-1.012000	192.000000	0.000000	112.000000	255.000000	128.000000	224.000000	96.000000	0.000000	0.000000	0.000000	1749122274.532712	0.000000
225.000000	-39246.176391	25971.475359	-28645.392197	0.000000	0.000000	0.000000	0.000000	0.000000	0.014000	-0.016000	-1.012000	192.000000	0.000000	0.000000	0.000000	0.000000	0.000000	0.000000	0.000000	0.000000	0.000000	1749122274.535717	0.000000
226.000000	-39254.491240	25983.545301	-28662.737151	0.000000	0.000000	0.000000	0.000000	0.000000	0.014000	-0.016000	-1.012000	192.000000	0.000000	0.000000	0.000000	0.000000	0.000000	0.000000	0.000000	0.000000	0.000000	1749122274.539728	0.000000
227.000000	-39257.039339	25986.763953	-28669.353267	0.000000	0.000000	0.000000	0.000000	0.000000	0.014000	-0.016000	-1.012000	192.000000	0.000000	0.000000	0.000000	0.000000	0.000000	0.000000	0.000000	0.000000	0.000000	1749122274.543686	0.000000
228.000000	-39248.456269	25975.118694	-28653.952915	0.000000	0.000000	0.000000	0.000000	0.000000	0.014000	-0.016000	-1.012000	192.000000	0.000000	0.000000	0.000000	0.000000	0.000000	0.000000	0.000000	0.000000	0.000000	1749122274.547829	0.000000
229.000000	-39239.984958	25964.032228	-28637.211458	0.000000	0.000000	0.000000	0.000000	0.000000	0.014000	-0.016000	-1.012000	192.000000	0.000000	0.000000	0.000000	0.000000	0.000000	0.000000	0.000000	0.000000	0.000000	1749122274.552656	0.000000
230.000000	-39239.381461	25964.993353	-28637.770252	0.000000	0.000000	0.000000	0.000000	0.000000	0.014000	-0.016000	-1.012000	192.000000	0.000000	0.000000	0.000000	0.000000	0.000000	0.000000	0.000000	0.000000	0.000000	1749122274.556650	0.000000
231.000000	-39248.210400	25977.219758	-28655.204613	0.000000	0.000000	0.000000	0.000000	0.000000	0.014000	-0.016000	-1.012000	192.000000	0.000000	0.000000	0.000000	0.000000	0.000000	0.000000	0.000000	0.000000	0.000000	1749122274.560781	0.000000
232.000000	-39252.345473	25981.623051	-28662.960668	0.000000	0.000000	0.000000	0.000000	0.000000	0.014000	-0.016000	-1.012000	192.000000	0.000000	0.000000	0.000000	0.000000	0.000000	0.000000	0.000000	0.000000	0.000000	1749122274.563685	0.000000
233.000000	-39244.365900	25970.223662	-28647.694427	0.000000	0.000000	0.000000	0.000000	0.000000	0.016000	-0.016000	-1.016000	192.000000	0.000000	128.000000	255.000000	128.000000	224.000000	64.000000	0.000000	0.000000	0.000000	1749122274.567662	0.000000
234.000000	-39236.721603	25959.852452	-28631.355301	0.000000	0.000000	0.000000	0.000000	0.000000	0.016000	-0.016000	-1.016000	192.000000	0.000000	0.000000	0.000000	0.000000	0.000000	0.000000	0.000000	0.000000	0.000000	1749122274.571648	0.000000
235.000000	-39239.403813	25964.389856	-28634.864525	0.000000	0.000000	0.000000	0.000000	0.000000	0.016000	-0.016000	-1.016000	192.000000	0.000000	0.000000	0.000000	0.000000	0.000000	0.000000	0.000000	0.000000	0.000000	1749122274.575721	0.000000
236.000000	-39251.652569	25980.237243	-28655.808110	0.000000	0.000000	0.000000	0.000000	0.000000	0.016000	-0.016000	-1.016000	192.000000	0.000000	0.000000	0.000000	0.000000	0.000000	0.000000	0.000000	0.000000	0.000000	1749122274.580717	0.000000
237.000000	-39256.525249	25984.931110	-28664.569994	0.000000	0.000000	0.000000	0.000000	0.000000	0.016000	-0.016000	-1.016000	192.000000	0.000000	0.000000	0.000000	0.000000	0.000000	0.000000	0.000000	0.000000	0.000000	1749122274.584744	0.000000
238.000000	-39247.070461	25972.101208	-28648.320275	0.000000	0.000000	0.000000	0.000000	0.000000	0.016000	-0.016000	-1.016000	192.000000	0.000000	0.000000	0.000000	0.000000	0.000000	0.000000	0.000000	0.000000	0.000000	1749122274.588844	0.000000
239.000000	-39235.693423	25958.310182	-28628.650740	0.000000	0.000000	0.000000	0.000000	0.000000	0.016000	-0.016000	-1.016000	192.000000	0.000000	0.000000	0.000000	0.000000	0.000000	0.000000	0.000000	0.000000	0.000000	1749122274.591820	0.000000
240.000000	-39234.508781	25959.405417	-28628.717795	0.000000	0.000000	0.000000	0.000000	0.000000	0.016000	-0.016000	-1.016000	192.000000	0.000000	0.000000	0.000000	0.000000	0.000000	0.000000	0.000000	0.000000	0.000000	1749122274.595825	0.000000
241.000000	-39244.567066	25973.621127	-28647.850889	0.000000	0.000000	0.000000	0.000000	0.000000	0.016000	-0.016000	-1.016000	192.000000	0.000000	0.000000	0.000000	0.000000	0.000000	0.000000	0.000000	0.000000	0.000000	1749122274.599767	0.000000
242.000000	-39250.311464	25979.700801	-28657.931525	0.000000	0.000000	0.000000	0.000000	0.000000	0.016000	-0.016000	-1.016000	192.000000	0.000000	0.000000	0.000000	0.000000	0.000000	0.000000	0.000000	0.000000	0.000000	1749122274.603916	0.000000
243.000000	-39242.309540	25968.681391	-28643.112319	0.000000	0.000000	0.000000	0.000000	0.000000	0.016000	-0.022000	-1.014000	192.000000	0.000000	128.000000	255.000000	80.000000	224.000000	80.000000	0.000000	0.000000	0.000000	1749122274.608751	0.000000
244.000000	-39232.161848	25956.164414	-28624.783888	0.000000	0.000000	0.000000	0.000000	0.000000	0.016000	-0.022000	-1.014000	192.000000	0.000000	0.000000	0.000000	0.000000	0.000000	0.000000	0.000000	0.000000	0.000000	1749122274.612792	0.000000
245.000000	-39231.960682	25957.706685	-28625.923827	0.000000	0.000000	0.000000	0.000000	0.000000	0.016000	-0.022000	-1.014000	192.000000	0.000000	0.000000	0.000000	0.000000	0.000000	0.000000	0.000000	0.000000	0.000000	1749122274.616723	0.000000
246.000000	-39242.086022	25971.587118	-28645.079272	0.000000	0.000000	0.000000	0.000000	0.000000	0.016000	-0.022000	-1.014000	192.000000	0.000000	0.000000	0.000000	0.000000	0.000000	0.000000	0.000000	0.000000	0.000000	1749122274.619850	0.000000
247.000000	-39245.058804	25975.029287	-28652.209479	0.000000	0.000000	0.000000	0.000000	0.000000	0.016000	-0.022000	-1.014000	192.000000	0.000000	0.000000	0.000000	0.000000	0.000000	0.000000	0.000000	0.000000	0.000000	1749122274.623841	0.000000
248.000000	-39235.872237	25962.646420	-28636.295037	0.000000	0.000000	0.000000	0.000000	0.000000	0.016000	-0.022000	-1.014000	192.000000	0.000000	0.000000	0.000000	0.000000	0.000000	0.000000	0.000000	0.000000	0.000000	1749122274.627739	0.000000
249.000000	-39226.171580	25950.688237	-28618.212476	0.000000	0.000000	0.000000	0.000000	0.000000	0.016000	-0.022000	-1.014000	192.000000	0.000000	0.000000	0.000000	0.000000	0.000000	0.000000	0.000000	0.000000	0.000000	1749122274.631814	0.000000
250.000000	-39227.847961	25954.242164	-28620.984092	0.000000	0.000000	0.000000	0.000000	0.000000	0.016000	-0.022000	-1.014000	192.000000	0.000000	0.000000	0.000000	0.000000	0.000000	0.000000	0.000000	0.000000	0.000000	1749122274.635822	0.000000
251.000000	-39239.761441	25969.575461	-28641.570049	0.000000	0.000000	0.000000	0.000000	0.000000	0.016000	-0.022000	-1.014000	192.000000	0.000000	0.000000	0.000000	0.000000	0.000000	0.000000	0.000000	0.000000	0.000000	1749122274.640924	0.000000
252.000000	-39244.120031	25974.246976	-28649.974304	0.000000	0.000000	0.000000	0.000000	0.000000	0.016000	-0.022000	-1.014000	192.000000	0.000000	0.000000	0.000000	0.000000	0.000000	0.000000	0.000000	0.000000	0.000000	1749122274.644773	0.000000
253.000000	-39234.955816	25961.484130	-28633.791641	0.000000	0.000000	0.000000	0.000000	0.000000	0.016000	-0.024000	-1.014000	192.000000	0.000000	128.000000	255.000000	64.000000	224.000000	80.000000	0.000000	0.000000	0.000000	1749122274.647788	0.000000
254.000000	-39227.289167	25951.023513	-28617.474868	0.000000	0.000000	0.000000	0.000000	0.000000	0.016000	-0.024000	-1.014000	192.000000	0.000000	0.000000	0.000000	0.000000	0.000000	0.000000	0.000000	0.000000	0.000000	1749122274.651803	0.000000
255.000000	-39229.569045	25955.158586	-28620.604112	0.000000	0.000000	0.000000	0.000000	0.000000	0.016000	-0.024000	-1.014000	192.000000	0.000000	0.000000	0.000000	0.000000	0.000000	0.000000	0.000000	0.000000	0.000000	1749122274.655801	0.000000
0.000000	-39238.353281	25967.496749	-28638.083176	0.000000	0.000000	0.000000	0.000000	0.000000	0.016000	-0.024000	-1.014000	192.000000	0.000000	0.000000	0.000000	0.000000	0.000000	0.000000	0.000000	0.000000	0.000000	1749122274.659801	0.000000
1.000000	-39242.354243	25971.542415	-28645.950990	0.000000	0.000000	0.000000	0.000000	0.000000	0.016000	-0.024000	-1.014000	192.000000	0.000000	0.000000	0.000000	0.000000	0.000000	0.000000	0.000000	0.000000	0.000000	1749122274.663884	0.000000
2.000000	-39232.742993	25958.377237	-28629.343644	0.000000	0.000000	0.000000	0.000000	0.000000	0.016000	-0.024000	-1.014000	192.000000	0.000000	0.000000	0.000000	0.000000	0.000000	0.000000	0.000000	0.000000	0.000000	1749122274.668990	0.000000
3.000000	-39224.562254	25947.491938	-28612.602188	0.000000	0.000000	0.000000	0.000000	0.000000	0.016000	-0.024000	-1.014000	192.000000	0.000000	0.000000	0.000000	0.000000	0.000000	0.000000	0.000000	0.000000	0.000000	1749122274.672002	0.000000
4.000000	-39227.892664	25952.409321	-28616.938426	0.000000	0.000000	0.000000	0.000000	0.000000	0.016000	-0.024000	-1.014000	192.000000	0.000000	0.000000	0.000000	0.000000	0.000000	0.000000	0.000000	0.000000	0.000000	1749122274.676054	0.000000
5.000000	-39236.743955	25965.082760	-28634.685711	0.000000	0.000000	0.000000	0.000000	0.000000	0.016000	-0.024000	-1.014000	192.000000	0.000000	0.000000	0.000000	0.000000	0.000000	0.000000	0.000000	0.000000	0.000000	1749122274.680001	0.000000
6.000000	-39240.744917	25969.553109	-28643.134671	0.000000	0.000000	0.000000	0.000000	0.000000	0.016000	-0.024000	-1.014000	192.000000	0.000000	0.000000	0.000000	0.000000	0.000000	0.000000	0.000000	0.000000	0.000000	1749122274.683919	0.000000
7.000000	-39233.592359	25959.316010	-28629.477755	0.000000	0.000000	0.000000	0.000000	0.000000	0.016000	-0.018000	-1.012000	192.000000	0.000000	128.000000	255.000000	112.000000	224.000000	96.000000	0.000000	0.000000	0.000000	1749122274.687994	0.000000
8.000000	-39223.556426	25947.201365	-28611.328138	0.000000	0.000000	0.000000	0.000000	0.000000	0.016000	-0.018000	-1.012000	192.000000	0.000000	0.000000	0.000000	0.000000	0.000000	0.000000	0.000000	0.000000	0.000000	1749122274.691988	0.000000
9.000000	-39222.327080	25948.318952	-28611.484600	0.000000	0.000000	0.000000	0.000000	0.000000	0.016000	-0.018000	-1.012000	192.000000	0.000000	0.000000	0.000000	0.000000	0.000000	0.000000	0.000000	0.000000	0.000000	1749122274.697015	0.000000
10.000000	-39230.708984	25960.657115	-28628.963665	0.000000	0.000000	0.000000	0.000000	0.000000	0.016000	-0.018000	-1.012000	192.000000	0.000000	0.000000	0.000000	0.000000	0.000000	0.000000	0.000000	0.000000	0.000000	1749122274.700013	0.000000
11.000000	-39235.156981	25965.820368	-28637.747900	0.000000	0.000000	0.000000	0.000000	0.000000	0.016000	-0.018000	-1.012000	192.000000	0.000000	0.000000	0.000000	0.000000	0.000000	0.000000	0.000000	0.000000	0.000000	1749122274.703929	0.000000
12.000000	-39226.439801	25954.040999	-28622.392252	0.000000	0.000000	0.000000	0.000000	0.000000	0.016000	-0.018000	-1.012000	192.000000	0.000000	0.000000	0.000000	0.000000	0.000000	0.000000	0.000000	0.000000	0.000000	1749122274.707983	0.000000
13.000000	-39215.487446	25940.384083	-28603.169752	0.000000	0.000000	0.000000	0.000000	0.000000	0.016000	-0.018000	-1.012000	192.000000	0.000000	0.000000	0.000000	0.000000	0.000000	0.000000	0.000000	0.000000	0.000000	1749122274.712042	0.000000
14.000000	-39218.728449	25945.301467	-28607.416583	0.000000	0.000000	0.000000	0.000000	0.000000	0.016000	-0.018000	-1.012000	192.000000	0.000000	0.000000	0.000000	0.000000	0.000000	0.000000	0.000000	0.000000	0.000000	1749122274.715936	0.000000
15.000000	-39229.010252	25959.047789	-28626.460269	0.000000	0.000000	0.000000	0.000000	0.000000	0.016000	-0.018000	-1.012000	192.000000	0.000000	0.000000	0.000000	0.000000	0.000000	0.000000	0.000000	0.000000	0.000000	1749122274.720032	0.000000
16.000000	-39230.820743	25961.417074	-28632.271723	0.000000	0.000000	0.000000	0.000000	0.000000	0.016000	-0.018000	-1.012000	192.000000	0.000000	0.000000	0.000000	0.000000	0.000000	0.000000	0.000000	0.000000	0.000000	1749122274.724020	0.000000
17.000000	-39222.192970	25949.794167	-28616.759612	0.000000	0.000000	0.000000	0.000000	0.000000	0.006000	-0.016000	-1.006000	192.000000	0.000000	48.000000	255.000000	128.000000	224.000000	144.000000	0.000000	0.000000	0.000000	1749122274.729028	0.000000
18.000000	-39214.682783	25939.512365	-28600.554597	0.000000	0.000000	0.000000	0.000000	0.000000	0.006000	-0.016000	-1.006000	192.000000	0.000000	0.000000	0.000000	0.000000	0.000000	0.000000	0.000000	0.000000	0.000000	1749122274.732025	0.000000
19.000000	-39216.962661	25943.580382	-28603.616786	0.000000	0.000000	0.000000	0.000000	0.000000	0.006000	-0.016000	-1.006000	192.000000	0.000000	0.000000	0.000000	0.000000	0.000000	0.000000	0.000000	0.000000	0.000000	1749122274.736089	0.000000
20.000000	-39225.612786	25955.605621	-28620.782926	0.000000	0.000000	0.000000	0.000000	0.000000	0.006000	-0.016000	-1.006000	192.000000	0.000000	0.000000	0.000000	0.000000	0.000000	0.000000	0.000000	0.000000	0.000000	1749122274.740031	0.000000
21.000000	-39229.569045	25959.360714	-28628.650740	0.000000	0.000000	0.000000	0.000000	0.000000	0.006000	-0.016000	-1.006000	192.000000	0.000000	0.000000	0.000000	0.000000	0.000000	0.000000	0.000000	0.000000	0.000000	1749122274.743992	0.000000
22.000000	-39223.154095	25949.436539	-28615.284397	0.000000	0.000000	0.000000	0.000000	0.000000	0.006000	-0.016000	-1.006000	192.000000	0.000000	0.000000	0.000000	0.000000	0.000000	0.000000	0.000000	0.000000	0.000000	1749122274.748054	0.000000
23.000000	-39214.973356	25938.350074	-28598.319423	0.000000	0.000000	0.000000	0.000000	0.000000	0.006000	-0.016000	-1.006000	192.000000	0.000000	0.000000	0.000000	0.000000	0.000000	0.000000	0.000000	0.000000	0.000000	1749122274.753143	0.000000
24.000000	-39215.710964	25940.741711	-28599.705231	0.000000	0.000000	0.000000	0.000000	0.000000	0.006000	-0.016000	-1.006000	192.000000	0.000000	0.000000	0.000000	0.000000	0.000000	0.000000	0.000000	0.000000	0.000000	1749122274.756123	0.000000
25.000000	-39225.948063	25954.510385	-28618.592455	0.000000	0.000000	0.000000	0.000000	0.000000	0.006000	-0.016000	-1.006000	192.000000	0.000000	0.000000	0.000000	0.000000	0.000000	0.000000	0.000000	0.000000	0.000000	1749122274.759171	0.000000
26.000000	-39230.597225	25959.628935	-28627.421394	0.000000	0.000000	0.000000	0.000000	0.000000	0.006000	-0.014000	-1.008000	192.000000	0.000000	48.000000	255.000000	144.000000	224.000000	128.000000	0.000000	0.000000	0.000000	1749122274.764150	0.000000
27.000000	-39222.237673	25948.095435	-28612.378670	0.000000	0.000000	0.000000	0.000000	0.000000	0.006000	-0.014000	-1.008000	192.000000	0.000000	0.000000	0.000000	0.000000	0.000000	0.000000	0.000000	0.000000	0.000000	1749122274.768072	0.000000
28.000000	-39211.575891	25934.751443	-28593.402039	0.000000	0.000000	0.000000	0.000000	0.000000	0.006000	-0.014000	-1.008000	192.000000	0.000000	0.000000	0.000000	0.000000	0.000000	0.000000	0.000000	0.000000	0.000000	1749122274.772188	0.000000
29.000000	-39214.012231	25939.177089	-28596.844208	0.000000	0.000000	0.000000	0.000000	0.000000	0.006000	-0.014000	-1.008000	192.000000	0.000000	0.000000	0.000000	0.000000	0.000000	0.000000	0.000000	0.000000	0.000000	1749122274.776155	0.000000
30.000000	-39222.751763	25952.141100	-28614.725603	0.000000	0.000000	0.000000	0.000000	0.000000	0.006000	-0.014000	-1.008000	192.000000	0.000000	0.000000	0.000000	0.000000	0.000000	0.000000	0.000000	0.000000	0.000000	1749122274.780235	0.000000
31.000000	-39227.043298	25957.036132	-28623.733356	0.000000	0.000000	0.000000	0.000000	0.000000	0.006000	-0.014000	-1.008000	192.000000	0.000000	0.000000	0.000000	0.000000	0.000000	0.000000	0.000000	0.000000	0.000000	1749122274.784181	0.000000
32.000000	-39218.482580	25945.636743	-28608.847095	0.000000	0.000000	0.000000	0.000000	0.000000	0.006000	-0.014000	-1.008000	192.000000	0.000000	0.000000	0.000000	0.000000	0.000000	0.000000	0.000000	0.000000	0.000000	1749122274.787282	0.000000
33.000000	-39210.145379	25935.131423	-28592.195045	0.000000	0.000000	0.000000	0.000000	0.000000	0.006000	-0.014000	-1.008000	192.000000	0.000000	0.000000	0.000000	0.000000	0.000000	0.000000	0.000000	0.000000	0.000000	1749122274.791246	0.000000
34.000000	-39211.777057	25938.372426	-28594.720792	0.000000	0.000000	0.000000	0.000000	0.000000	0.006000	-0.014000	-1.008000	192.000000	0.000000	0.000000	0.000000	0.000000	0.000000	0.000000	0.000000	0.000000	0.000000	1749122274.796325	0.000000
35.000000	-39221.030679	25951.716417	-28612.959816	0.000000	0.000000	0.000000	0.000000	0.000000	0.006000	-0.014000	-1.008000	192.000000	0.000000	0.000000	0.000000	0.000000	0.000000	0.000000	0.000000	0.000000	0.000000	1749122274.800291	0.000000
36.000000	-39223.601129	25954.957420	-28619.888856	0.000000	0.000000	0.000000	0.000000	0.000000	0.006000	-0.014000	-1.010000	192.000000	0.000000	48.000000	255.000000	144.000000	224.000000	112.000000	0.000000	0.000000	0.000000	1749122274.804133	0.000000
37.000000	-39213.028754	25940.942876	-28602.745068	0.000000	0.000000	0.000000	0.000000	0.000000	0.006000	-0.014000	-1.010000	192.000000	0.000000	0.000000	0.000000	0.000000	0.000000	0.000000	0.000000	0.000000	0.000000	1749122274.808229	0.000000
38.000000	-39203.931594	25929.319969	-28585.243652	0.000000	0.000000	0.000000	0.000000	0.000000	0.006000	-0.014000	-1.010000	192.000000	0.000000	0.000000	0.000000	0.000000	0.000000	0.000000	0.000000	0.000000	0.000000	1749122274.811152	0.000000
39.000000	-39204.199815	25931.398682	-28586.383591	0.000000	0.000000	0.000000	0.000000	0.000000	0.006000	-0.014000	-1.010000	192.000000	0.000000	0.000000	0.000000	0.000000	0.000000	0.000000	0.000000	0.000000	0.000000	1749122274.815232	0.000000
40.000000	-39211.978222	25942.842775	-28603.035641	0.000000	0.000000	0.000000	0.000000	0.000000	0.006000	-0.014000	-1.010000	192.000000	0.000000	0.000000	0.000000	0.000000	0.000000	0.000000	0.000000	0.000000	0.000000	1749122274.820254	0.000000
41.000000	-39216.761496	25948.386007	-28612.088098	0.000000	0.000000	0.000000	0.000000	0.000000	0.006000	-0.014000	-1.010000	192.000000	0.000000	0.000000	0.000000	0.000000	0.000000	0.000000	0.000000	0.000000	0.000000	1749122274.824201	0.000000
42.000000	-39210.346545	25938.819461	-28598.967624	0.000000	0.000000	0.000000	0.000000	0.000000	0.006000	-0.014000	-1.010000	192.000000	0.000000	0.000000	0.000000	0.000000	0.000000	0.000000	0.000000	0.000000	0.000000	1749122274.828276	0.000000
43.000000	-39200.735295	25926.324836	-28580.616841	0.000000	0.000000	0.000000	0.000000	0.000000	0.006000	-0.014000	-1.010000	192.000000	0.000000	0.000000	0.000000	0.000000	0.000000	0.000000	0.000000	0.000000	0.000000	1749122274.832261	0.000000
44.000000	-39200.601184	25927.464775	-28580.996821	0.000000	0.000000	0.000000	0.000000	0.000000	0.006000	-0.014000	-1.010000	192.000000	0.000000	0.000000	0.000000	0.000000	0.000000	0.000000	0.000000	0.000000	0.000000	1749122274.836345	0.000000
45.000000	-39211.464132	25941.479318	-28600.420487	0.000000	0.000000	0.000000	0.000000	0.000000	0.006000	-0.014000	-1.010000	192.000000	0.000000	0.000000	0.000000	0.000000	0.000000	0.000000	0.000000	0.000000	0.000000	1749122274.840225	0.000000
46.000000	-39216.113295	25946.441406	-28609.204723	0.000000	0.000000	0.000000	0.000000	0.000000	0.010000	-0.016000	-1.006000	192.000000	0.000000	80.000000	255.000000	128.000000	224.000000	144.000000	0.000000	0.000000	0.000000	1749122274.843263	0.000000
47.000000	-39207.820798	25934.706740	-28594.050240	0.000000	0.000000	0.000000	0.000000	0.000000	0.010000	-0.016000	-1.006000	192.000000	0.000000	0.000000	0.000000	0.000000	0.000000	0.000000	0.000000	0.000000	0.000000	1749122274.847300	0.000000
48.000000	-39199.796522	25923.977902	-28577.308783	0.000000	0.000000	0.000000	0.000000	0.000000	0.010000	-0.016000	-1.006000	192.000000	0.000000	0.000000	0.000000	0.000000	0.000000	0.000000	0.000000	0.000000	0.000000	1749122274.851198	0.000000
49.000000	-39202.478731	25928.716472	-28580.661545	0.000000	0.000000	0.000000	0.000000	0.000000	0.010000	-0.016000	-1.006000	192.000000	0.000000	0.000000	0.000000	0.000000	0.000000	0.000000	0.000000	0.000000	0.000000	1749122274.856351	0.000000
50.000000	-39213.475789	25943.714493	-28600.576949	0.000000	0.000000	0.000000	0.000000	0.000000	0.010000	-0.016000	-1.006000	192.000000	0.000000	0.000000	0.000000	0.000000	0.000000	0.000000	0.000000	0.000000	0.000000	1749122274.860390	0.000000
51.000000	-39217.677917	25948.587173	-28609.450592	0.000000	0.000000	0.000000	0.000000	0.000000	0.010000	-0.016000	-1.006000	192.000000	0.000000	0.000000	0.000000	0.000000	0.000000	0.000000	0.000000	0.000000	0.000000	1749122274.864311	0.000000
52.000000	-39209.139551	25936.986618	-28594.609033	0.000000	0.000000	0.000000	0.000000	0.000000	0.010000	-0.016000	-1.006000	192.000000	0.000000	0.000000	0.000000	0.000000	0.000000	0.000000	0.000000	0.000000	0.000000	1749122274.867236	0.000000
53.000000	-39198.209548	25923.352054	-28575.297126	0.000000	0.000000	0.000000	0.000000	0.000000	0.010000	-0.016000	-1.006000	192.000000	0.000000	0.000000	0.000000	0.000000	0.000000	0.000000	0.000000	0.000000	0.000000	1749122274.871309	0.000000
54.000000	-39198.209548	25924.804917	-28576.124141	0.000000	0.000000	0.000000	0.000000	0.000000	0.010000	-0.016000	-1.006000	192.000000	0.000000	0.000000	0.000000	0.000000	0.000000	0.000000	0.000000	0.000000	0.000000	1749122274.875410	0.000000
55.000000	-39206.658507	25937.366597	-28593.536150	0.000000	0.000000	0.000000	0.000000	0.000000	0.010000	-0.016000	-1.006000	192.000000	0.000000	0.000000	0.000000	0.000000	0.000000	0.000000	0.000000	0.000000	0.000000	1749122274.880383	0.000000
56.000000	-39210.570062	25942.418092	-28602.119220	0.000000	0.000000	0.000000	0.000000	0.000000	0.008000	-0.018000	-1.012000	192.000000	0.000000	64.000000	255.000000	112.000000	224.000000	96.000000	0.000000	0.000000	0.000000	1749122274.884388	0.000000
57.000000	-39201.942289	25931.018702	-28587.054144	0.000000	0.000000	0.000000	0.000000	0.000000	0.008000	-0.018000	-1.012000	192.000000	0.000000	0.000000	0.000000	0.000000	0.000000	0.000000	0.000000	0.000000	0.000000	1749122274.888371	0.000000
58.000000	-39191.794597	25918.412318	-28568.479844	0.000000	0.000000	0.000000	0.000000	0.000000	0.008000	-0.018000	-1.012000	192.000000	0.000000	0.000000	0.000000	0.000000	0.000000	0.000000	0.000000	0.000000	0.000000	1749122274.892325	0.000000
59.000000	-39193.649792	25922.010949	-28571.094998	0.000000	0.000000	0.000000	0.000000	0.000000	0.008000	-0.018000	-1.012000	192.000000	0.000000	0.000000	0.000000	0.000000	0.000000	0.000000	0.000000	0.000000	0.000000	1749122274.895394	0.000000
60.000000	-39204.892719	25937.143080	-28591.233920	0.000000	0.000000	0.000000	0.000000	0.000000	0.008000	-0.018000	-1.012000	192.000000	0.000000	0.000000	0.000000	0.000000	0.000000	0.000000	0.000000	0.000000	0.000000	1749122274.899324	0.000000
61.000000	-39208.223129	25941.278153	-28599.235845	0.000000	0.000000	0.000000	0.000000	0.000000	0.008000	-0.018000	-1.012000	192.000000	0.000000	0.000000	0.000000	0.000000	0.000000	0.000000	0.000000	0.000000	0.000000	1749122274.903298	0.000000
62.000000	-39200.690591	25930.839888	-28585.400115	0.000000	0.000000	0.000000	0.000000	0.000000	0.008000	-0.018000	-1.012000	192.000000	0.000000	0.000000	0.000000	0.000000	0.000000	0.000000	0.000000	0.000000	0.000000	1749122274.907472	0.000000
63.000000	-39190.744065	25918.255856	-28566.781112	0.000000	0.000000	0.000000	0.000000	0.000000	0.008000	-0.018000	-1.012000	192.000000	0.000000	0.000000	0.000000	0.000000	0.000000	0.000000	0.000000	0.000000	0.000000	1749122274.912455	0.000000
64.000000	-39189.291202	25918.278208	-28565.998801	0.000000	0.000000	0.000000	0.000000	0.000000	0.008000	-0.018000	-1.012000	192.000000	0.000000	0.000000	0.000000	0.000000	0.000000	0.000000	0.000000	0.000000	0.000000	1749122274.916359	0.000000
65.000000	-39200.467074	25933.633856	-28585.802446	0.000000	0.000000	0.000000	0.000000	0.000000	0.008000	-0.018000	-1.012000	192.000000	0.000000	0.000000	0.000000	0.000000	0.000000	0.000000	0.000000	0.000000	0.000000	1749122274.920590	0.000000
66.000000	-39207.105542	25941.076987	-28596.531283	0.000000	0.000000	0.000000	0.000000	0.000000	0.010000	-0.018000	-1.016000	192.000000	0.000000	80.000000	255.000000	112.000000	224.000000	64.000000	0.000000	0.000000	0.000000	1749122274.923330	0.000000
67.000000	-39199.483597	25930.057577	-28582.002650	0.000000	0.000000	0.000000	0.000000	0.000000	0.010000	-0.018000	-1.016000	192.000000	0.000000	0.000000	0.000000	0.000000	0.000000	0.000000	0.000000	0.000000	0.000000	1749122274.927458	0.000000
68.000000	-39187.793635	25915.595998	-28561.416693	0.000000	0.000000	0.000000	0.000000	0.000000	0.010000	-0.018000	-1.016000	192.000000	0.000000	0.000000	0.000000	0.000000	0.000000	0.000000	0.000000	0.000000	0.000000	1749122274.931469	0.000000
69.000000	-39187.503062	25916.646530	-28561.528452	0.000000	0.000000	0.000000	0.000000	0.000000	0.010000	-0.018000	-1.016000	192.000000	0.000000	0.000000	0.000000	0.000000	0.000000	0.000000	0.000000	0.000000	0.000000	1749122274.936487	0.000000
70.000000	-39198.969507	25931.666903	-28581.443856	0.000000	0.000000	0.000000	0.000000	0.000000	0.010000	-0.018000	-1.016000	192.000000	0.000000	0.000000	0.000000	0.000000	0.000000	0.000000	0.000000	0.000000	0.000000	1749122274.940459	0.000000
71.000000	-39201.651716	25935.220830	-28588.462304	0.000000	0.000000	0.000000	0.000000	0.000000	0.010000	-0.018000	-1.016000	192.000000	0.000000	0.000000	0.000000	0.000000	0.000000	0.000000	0.000000	0.000000	0.000000	1749122274.944370	0.000000
72.000000	-39193.046295	25923.709681	-28573.106655	0.000000	0.000000	0.000000	0.000000	0.000000	0.010000	-0.018000	-1.016000	192.000000	0.000000	0.000000	0.000000	0.000000	0.000000	0.000000	0.000000	0.000000	0.000000	1749122274.948477	0.000000
73.000000	-39183.971487	25912.399699	-28555.404074	0.000000	0.000000	0.000000	0.000000	0.000000	0.010000	-0.018000	-1.016000	192.000000	0.000000	0.000000	0.000000	0.000000	0.000000	0.000000	0.000000	0.000000	0.000000	1749122274.951458	0.000000
74.000000	-39186.497234	25916.802992	-28558.466263	0.000000	0.000000	0.000000	0.000000	0.000000	0.010000	-0.018000	-1.016000	192.000000	0.000000	0.000000	0.000000	0.000000	0.000000	0.000000	0.000000	0.000000	0.000000	1749122274.955548	0.000000
75.000000	-39196.957850	25931.309275	-28577.644059	0.000000	0.000000	0.000000	0.000000	0.000000	0.010000	-0.018000	-1.016000	192.000000	0.000000	0.000000	0.000000	0.000000	0.000000	0.000000	0.000000	0.000000	0.000000	1749122274.959559	0.000000
76.000000	-39201.986993	25937.366597	-28587.143551	0.000000	0.000000	0.000000	0.000000	0.000000	0.012000	-0.014000	-1.014000	192.000000	0.000000	96.000000	255.000000	144.000000	224.000000	80.000000	0.000000	0.000000	0.000000	1749122274.963421	0.000000
77.000000	-39193.582737	25925.922504	-28572.167882	0.000000	0.000000	0.000000	0.000000	0.000000	0.012000	-0.014000	-1.014000	192.000000	0.000000	0.000000	0.000000	0.000000	0.000000	0.000000	0.000000	0.000000	0.000000	1749122274.968487	0.000000
78.000000	-39183.859728	25913.785507	-28553.638286	0.000000	0.000000	0.000000	0.000000	0.000000	0.012000	-0.014000	-1.014000	192.000000	0.000000	0.000000	0.000000	0.000000	0.000000	0.000000	0.000000	0.000000	0.000000	1749122274.972422	0.000000
79.000000	-39186.519585	25918.591132	-28556.923992	0.000000	0.000000	0.000000	0.000000	0.000000	0.012000	-0.014000	-1.014000	192.000000	0.000000	0.000000	0.000000	0.000000	0.000000	0.000000	0.000000	0.000000	0.000000	1749122274.976531	0.000000
80.000000	-39197.315478	25933.499746	-28576.302955	0.000000	0.000000	0.000000	0.000000	0.000000	0.012000	-0.014000	-1.014000	192.000000	0.000000	0.000000	0.000000	0.000000	0.000000	0.000000	0.000000	0.000000	0.000000	1749122274.979513	0.000000
81.000000	-39199.997687	25937.076025	-28583.477865	0.000000	0.000000	0.000000	0.000000	0.000000	0.012000	-0.014000	-1.014000	192.000000	0.000000	0.000000	0.000000	0.000000	0.000000	0.000000	0.000000	0.000000	0.000000	1749122274.983508	0.000000
82.000000	-39188.888870	25923.217943	-28566.132911	0.000000	0.000000	0.000000	0.000000	0.000000	0.012000	-0.014000	-1.014000	192.000000	0.000000	0.000000	0.000000	0.000000	0.000000	0.000000	0.000000	0.000000	0.000000	1749122274.987588	0.000000
83.000000	-39180.015228	25911.907960	-28548.653847	0.000000	0.000000	0.000000	0.000000	0.000000	0.012000	-0.014000	-1.014000	192.000000	0.000000	0.000000	0.000000	0.000000	0.000000	0.000000	0.000000	0.000000	0.000000	1749122274.991649	0.000000
84.000000	-39181.311629	25915.238370	-28550.509042	0.000000	0.000000	0.000000	0.000000	0.000000	0.012000	-0.014000	-1.014000	192.000000	0.000000	0.000000	0.000000	0.000000	0.000000	0.000000	0.000000	0.000000	0.000000	1749122274.996605	0.000000
85.000000	-39191.392266	25929.163507	-28569.351562	0.000000	0.000000	0.000000	0.000000	0.000000	0.012000	-0.014000	-1.016000	192.000000	0.000000	96.000000	255.000000	144.000000	224.000000	64.000000	0.000000	0.000000	0.000000	1749122275.000609	0.000000
86.000000	-39195.907318	25934.572629	-28578.314612	0.000000	0.000000	0.000000	0.000000	0.000000	0.012000	-0.014000	-1.016000	192.000000	0.000000	0.000000	0.000000	0.000000	0.000000	0.000000	0.000000	0.000000	0.000000	1749122275.004681	0.000000
87.000000	-39188.665353	25924.447289	-28564.545937	0.000000	0.000000	0.000000	0.000000	0.000000	0.012000	-0.014000	-1.016000	192.000000	0.000000	0.000000	0.000000	0.000000	0.000000	0.000000	0.000000	0.000000	0.000000	1749122275.007627	0.000000
88.000000	-39179.031751	25912.243237	-28546.016341	0.000000	0.000000	0.000000	0.000000	0.000000	0.012000	-0.014000	-1.016000	192.000000	0.000000	0.000000	0.000000	0.000000	0.000000	0.000000	0.000000	0.000000	0.000000	1749122275.011614	0.000000
89.000000	-39179.657600	25914.903094	-28546.709245	0.000000	0.000000	0.000000	0.000000	0.000000	0.012000	-0.014000	-1.016000	192.000000	0.000000	0.000000	0.000000	0.000000	0.000000	0.000000	0.000000	0.000000	0.000000	1749122275.015644	0.000000
90.000000	-39191.056990	25929.968170	-28566.401132	0.000000	0.000000	0.000000	0.000000	0.000000	0.012000	-0.014000	-1.016000	192.000000	0.000000	0.000000	0.000000	0.000000	0.000000	0.000000	0.000000	0.000000	0.000000	1749122275.019645	0.000000
91.000000	-39197.159016	25936.472528	-28577.062914	0.000000	0.000000	0.000000	0.000000	0.000000	0.012000	-0.014000	-1.016000	192.000000	0.000000	0.000000	0.000000	0.000000	0.000000	0.000000	0.000000	0.000000	0.000000	1749122275.023592	0.000000
92.000000	-39188.933574	25925.140193	-28562.221356	0.000000	0.000000	0.000000	0.000000	0.000000	0.012000	-0.014000	-1.016000	192.000000	0.000000	0.000000	0.000000	0.000000	0.000000	0.000000	0.000000	0.000000	0.000000	1749122275.028646	0.000000
93.000000	-39177.668295	25911.080946	-28542.194193	0.000000	0.000000	0.000000	0.000000	0.000000	0.012000	-0.014000	-1.016000	192.000000	0.000000	0.000000	0.000000	0.000000	0.000000	0.000000	0.000000	0.000000	0.000000	1749122275.032649	0.000000
94.000000	-39178.182385	25913.271417	-28543.155318	0.000000	0.000000	0.000000	0.000000	0.000000	0.012000	-0.014000	-1.016000	192.000000	0.000000	0.000000	0.000000	0.000000	0.000000	0.000000	0.000000	0.000000	0.000000	1749122275.035753	0.000000
95.000000	-39190.207623	25929.096452	-28563.897737	0.000000	0.000000	0.000000	0.000000	0.000000	0.014000	-0.012000	-1.014000	192.000000	0.000000	112.000000	255.000000	160.000000	224.000000	80.000000	0.000000	0.000000	0.000000	1749122275.039694	0.000000
96.000000	-39194.722676	25934.550278	-28573.039600	0.000000	0.000000	0.000000	0.000000	0.000000	0.014000	-0.012000	-1.014000	192.000000	0.000000	0.000000	0.000000	0.000000	0.000000	0.000000	0.000000	0.000000	0.000000	1749122275.043614	0.000000
97.000000	-39186.161958	25923.463812	-28558.108635	0.000000	0.000000	0.000000	0.000000	0.000000	0.014000	-0.012000	-1.014000	192.000000	0.000000	0.000000	0.000000	0.000000	0.000000	0.000000	0.000000	0.000000	0.000000	1749122275.047604	0.000000
98.000000	-39175.544879	25910.499801	-28538.752024	0.000000	0.000000	0.000000	0.000000	0.000000	0.014000	-0.012000	-1.014000	192.000000	0.000000	0.000000	0.000000	0.000000	0.000000	0.000000	0.000000	0.000000	0.000000	1749122275.051647	0.000000
99.000000	-39172.549745	25909.672786	-28536.315684	0.000000	0.000000	0.000000	0.000000	0.000000	0.014000	-0.012000	-1.014000	192.000000	0.000000	0.000000	0.000000	0.000000	0.000000	0.000000	0.000000	0.000000	0.000000	1749122275.056609	0.000000
100.000000	-39184.306763	25925.520173	-28556.812234	0.000000	0.000000	0.000000	0.000000	0.000000	0.014000	-0.012000	-1.014000	192.000000	0.000000	0.000000	0.000000	0.000000	0.000000	0.000000	0.000000	0.000000	0.000000	1749122275.060718	0.000000
101.000000	-39190.118216	25931.957475	-28567.406960	0.000000	0.000000	0.000000	0.000000	0.000000	0.014000	-0.012000	-1.014000	192.000000	0.000000	0.000000	0.000000	0.000000	0.000000	0.000000	0.000000	0.000000	0.000000	1749122275.063686	0.000000
102.000000	-39184.306763	25923.352054	-28555.292315	0.000000	0.000000	0.000000	0.000000	0.000000	0.014000	-0.012000	-1.014000	192.000000	0.000000	0.000000	0.000000	0.000000	0.000000	0.000000	0.000000	0.000000	0.000000	1749122275.067628	0.000000
103.000000	-39172.482690	25909.248103	-28534.974579	0.000000	0.000000	0.000000	0.000000	0.000000	0.014000	-0.012000	-1.014000	192.000000	0.000000	0.000000	0.000000	0.000000	0.000000	0.000000	0.000000	0.000000	0.000000	1749122275.071831	0.000000
104.000000	-39170.694550	25909.672786	-28533.812289	0.000000	0.000000	0.000000	0.000000	0.000000	0.014000	-0.012000	-1.014000	192.000000	0.000000	0.000000	0.000000	0.000000	0.000000	0.000000	0.000000	0.000000	0.000000	1749122275.075947	0.000000
105.000000	-39179.434082	25922.837963	-28551.581925	0.000000	0.000000	0.000000	0.000000	0.000000	0.014000	-0.014000	-1.016000	192.000000	0.000000	112.000000	255.000000	144.000000	224.000000	64.000000	0.000000	0.000000	0.000000	1749122275.079824	0.000000
106.000000	-39183.926783	25928.537658	-28561.148472	0.000000	0.000000	0.000000	0.000000	0.000000	0.014000	-0.014000	-1.016000	192.000000	0.000000	0.000000	0.000000	0.000000	0.000000	0.000000	0.000000	0.000000	0.000000	1749122275.083699	0.000000
107.000000	-39175.857803	25918.144097	-28547.133928	0.000000	0.000000	0.000000	0.000000	0.000000	0.014000	-0.014000	-1.016000	192.000000	0.000000	0.000000	0.000000	0.000000	0.000000	0.000000	0.000000	0.000000	0.000000	1749122275.088932	0.000000
108.000000	-39165.620704	25905.940045	-28528.581980	0.000000	0.000000	0.000000	0.000000	0.000000	0.014000	-0.014000	-1.016000	192.000000	0.000000	0.000000	0.000000	0.000000	0.000000	0.000000	0.000000	0.000000	0.000000	1749122275.091799	0.000000
109.000000	-39167.118271	25909.628082	-28530.839506	0.000000	0.000000	0.000000	0.000000	0.000000	0.014000	-0.014000	-1.016000	192.000000	0.000000	0.000000	0.000000	0.000000	0.000000	0.000000	0.000000	0.000000	0.000000	1749122275.095791	0.000000
110.000000	-39176.975391	25923.955551	-28549.860841	0.000000	0.000000	0.000000	0.000000	0.000000	0.014000	-0.014000	-1.016000	192.000000	0.000000	0.000000	0.000000	0.000000	0.000000	0.000000	0.000000	0.000000	0.000000	1749122275.099798	0.000000
111.000000	-39180.842242	25928.761176	-28558.801539	0.000000	0.000000	0.000000	0.000000	0.000000	0.014000	-0.014000	-1.016000	192.000000	0.000000	0.000000	0.000000	0.000000	0.000000	0.000000	0.000000	0.000000	0.000000	1749122275.103736	0.000000
112.000000	-39172.214469	25917.697062	-28544.116443	0.000000	0.000000	0.000000	0.000000	0.000000	0.014000	-0.014000	-1.016000	192.000000	0.000000	0.000000	0.000000	0.000000	0.000000	0.000000	0.000000	0.000000	0.000000	1749122275.107769	0.000000
113.000000	-39160.300989	25904.084850	-28523.910466	0.000000	0.000000	0.000000	0.000000	0.000000	0.014000	-0.014000	-1.016000	192.000000	0.000000	0.000000	0.000000	0.000000	0.000000	0.000000	0.000000	0.000000	0.000000	1749122275.111873	0.000000
114.000000	-39159.652789	25905.358899	-28523.932817	0.000000	0.000000	0.000000	0.000000	0.000000	0.014000	-0.014000	-1.016000	192.000000	0.000000	0.000000	0.000000	0.000000	0.000000	0.000000	0.000000	0.000000	0.000000	1749122275.116963	0.000000
115.000000	-39170.918068	25920.558086	-28544.317608	0.000000	0.000000	0.000000	0.000000	0.000000	0.014000	-0.014000	-1.018000	192.000000	0.000000	112.000000	255.000000	144.000000	224.000000	48.000000	0.000000	0.000000	0.000000	1749122275.119827	0.000000
116.000000	-39177.757702	25928.649417	-28556.186385	0.000000	0.000000	0.000000	0.000000	0.000000	0.014000	-0.014000	-1.018000	192.000000	0.000000	0.000000	0.000000	0.000000	0.000000	0.000000	0.000000	0.000000	0.000000	1749122275.123729	0.000000
117.000000	-39168.884059	25916.937103	-28541.166012	0.000000	0.000000	0.000000	0.000000	0.000000	0.014000	-0.014000	-1.018000	192.000000	0.000000	0.000000	0.000000	0.000000	0.000000	0.000000	0.000000	0.000000	0.000000	1749122275.127729	0.000000
118.000000	-39157.059986	25902.944911	-28521.027091	0.000000	0.000000	0.000000	0.000000	0.000000	0.014000	-0.014000	-1.018000	192.000000	0.000000	0.000000	0.000000	0.000000	0.000000	0.000000	0.000000	0.000000	0.000000	1749122275.131842	0.000000
119.000000	-39160.166879	25908.085812	-28524.826887	0.000000	0.000000	0.000000	0.000000	0.000000	0.014000	-0.014000	-1.018000	192.000000	0.000000	0.000000	0.000000	0.000000	0.000000	0.000000	0.000000	0.000000	0.000000	1749122275.135896	0.000000
120.000000	-39171.745082	25923.732033	-28545.390492	0.000000	0.000000	0.000000	0.000000	0.000000	0.014000	-0.014000	-1.018000	192.000000	0.000000	0.000000	0.000000	0.000000	0.000000	0.000000	0.000000	0.000000	0.000000	1749122275.139971	0.000000
121.000000	-39174.606106	25927.934161	-28553.414768	0.000000	0.000000	0.000000	0.000000	0.000000	0.014000	-0.014000	-1.018000	192.000000	0.000000	0.000000	0.000000	0.000000	0.000000	0.000000	0.000000	0.000000	0.000000	1749122275.144778	0.000000
122.000000	-39166.090091	25917.093565	-28538.908486	0.000000	0.000000	0.000000	0.000000	0.000000	0.014000	-0.014000	-1.018000	192.000000	0.000000	0.000000	0.000000	0.000000	0.000000	0.000000	0.000000	0.000000	0.000000	1749122275.147969	0.000000
123.000000	-39155.830640	25904.755402	-28520.043614	0.000000	0.000000	0.000000	0.000000	0.000000	0.014000	-0.014000	-1.018000	192.000000	0.000000	0.000000	0.000000	0.000000	0.000000	0.000000	0.000000	0.000000	0.000000	1749122275.151076	0.000000
124.000000	-39156.545896	25907.415260	-28521.384719	0.000000	0.000000	0.000000	0.000000	0.000000	0.014000	-0.014000	-1.018000	192.000000	0.000000	0.000000	0.000000	0.000000	0.000000	0.000000	0.000000	0.000000	0.000000	1749122275.155863	0.000000
125.000000	-39167.162975	25921.675673	-28540.875440	0.000000	0.000000	0.000000	0.000000	0.000000	0.020000	-0.020000	-1.018000	192.000000	0.000000	160.000000	255.000000	96.000000	224.000000	48.000000	0.000000	0.000000	0.000000	1749122275.159782	0.000000
126.000000	-39172.572097	25928.135327	-28551.358408	0.000000	0.000000	0.000000	0.000000	0.000000	0.020000	-0.020000	-1.018000	192.000000	0.000000	0.000000	0.000000	0.000000	0.000000	0.000000	0.000000	0.000000	0.000000	1749122275.163847	0.000000
127.000000	-39165.039559	25918.009987	-28537.902658	0.000000	0.000000	0.000000	0.000000	0.000000	0.020000	-0.020000	-1.018000	192.000000	0.000000	0.000000	0.000000	0.000000	0.000000	0.000000	0.000000	0.000000	0.000000	1749122275.167836	0.000000
128.000000	-39153.640169	25904.509533	-28518.121364	0.000000	0.000000	0.000000	0.000000	0.000000	0.020000	-0.020000	-1.018000	192.000000	0.000000	0.000000	0.000000	0.000000	0.000000	0.000000	0.000000	0.000000	0.000000	1749122275.171867	0.000000
129.000000	-39153.260190	25906.409431	-28518.255474	0.000000	0.000000	0.000000	0.000000	0.000000	0.020000	-0.020000	-1.018000	192.000000	0.000000	0.000000	0.000000	0.000000	0.000000	0.000000	0.000000	0.000000	0.000000	1749122275.175902	0.000000
130.000000	-39162.759681	25920.088699	-28536.807422	0.000000	0.000000	0.000000	0.000000	0.000000	0.020000	-0.020000	-1.018000	192.000000	0.000000	0.000000	0.000000	0.000000	0.000000	0.000000	0.000000	0.000000	0.000000	1749122275.178923	0.000000
131.000000	-39166.447719	25924.760213	-28545.792824	0.000000	0.000000	0.000000	0.000000	0.000000	0.020000	-0.020000	-1.018000	192.000000	0.000000	0.000000	0.000000	0.000000	0.000000	0.000000	0.000000	0.000000	0.000000	1749122275.183827	0.000000
132.000000	-39157.350559	25913.271417	-28531.018320	0.000000	0.000000	0.000000	0.000000	0.000000	0.020000	-0.020000	-1.018000	192.000000	0.000000	0.000000	0.000000	0.000000	0.000000	0.000000	0.000000	0.000000	0.000000	1749122275.187996	0.000000
133.000000	-39145.593541	25899.368632	-28510.879399	0.000000	0.000000	0.000000	0.000000	0.000000	0.020000	-0.020000	-1.018000	192.000000	0.000000	0.000000	0.000000	0.000000	0.000000	0.000000	0.000000	0.000000	0.000000	1749122275.192073	0.000000
134.000000	-39146.755832	25902.453172	-28512.734593	0.000000	0.000000	0.000000	0.000000	0.000000	0.012000	-0.022000	-1.020000	192.000000	0.000000	96.000000	255.000000	80.000000	224.000000	32.000000	0.000000	0.000000	0.000000	1749122275.196022	0.000000
135.000000	-39157.708187	25917.361786	-28532.627646	0.000000	0.000000	0.000000	0.000000	0.000000	0.012000	-0.022000	-1.020000	192.000000	0.000000	0.000000	0.000000	0.000000	0.000000	0.000000	0.000000	0.000000	0.000000	1749122275.199938	0.000000
136.000000	-39165.017207	25926.078966	-28545.099919	0.000000	0.000000	0.000000	0.000000	0.000000	0.012000	-0.022000	-1.020000	192.000000	0.000000	0.000000	0.000000	0.000000	0.000000	0.000000	0.000000	0.000000	0.000000	1749122275.204020	0.000000
137.000000	-39157.954056	25916.892399	-28532.068852	0.000000	0.000000	0.000000	0.000000	0.000000	0.012000	-0.022000	-1.020000	192.000000	0.000000	0.000000	0.000000	0.000000	0.000000	0.000000	0.000000	0.000000	0.000000	1749122275.206998	0.000000
138.000000	-39147.292274	25904.353071	-28512.891056	0.000000	0.000000	0.000000	0.000000	0.000000	0.012000	-0.022000	-1.020000	192.000000	0.000000	0.000000	0.000000	0.000000	0.000000	0.000000	0.000000	0.000000	0.000000	1749122275.211990	0.000000
139.000000	-39146.688777	25905.917693	-28513.025166	0.000000	0.000000	0.000000	0.000000	0.000000	0.012000	-0.022000	-1.020000	192.000000	0.000000	0.000000	0.000000	0.000000	0.000000	0.000000	0.000000	0.000000	0.000000	1749122275.216037	0.000000
140.000000	-39156.948228	25920.155754	-28532.471184	0.000000	0.000000	0.000000	0.000000	0.000000	0.012000	-0.022000	-1.020000	192.000000	0.000000	0.000000	0.000000	0.000000	0.000000	0.000000	0.000000	0.000000	0.000000	1749122275.220011	0.000000
141.000000	-39163.162012	25927.397719	-28543.982332	0.000000	0.000000	0.000000	0.000000	0.000000	0.012000	-0.022000	-1.020000	192.000000	0.000000	0.000000	0.000000	0.000000	0.000000	0.000000	0.000000	0.000000	0.000000	1749122275.223991	0.000000
142.000000	-39152.969617	25914.925446	-28527.911428	0.000000	0.000000	0.000000	0.000000	0.000000	0.012000	-0.022000	-1.020000	192.000000	0.000000	0.000000	0.000000	0.000000	0.000000	0.000000	0.000000	0.000000	0.000000	1749122275.228068	0.000000
143.000000	-39138.150410	25898.273396	-28504.687965	0.000000	0.000000	0.000000	0.000000	0.000000	0.012000	-0.022000	-1.020000	192.000000	0.000000	0.000000	0.000000	0.000000	0.000000	0.000000	0.000000	0.000000	0.000000	1749122275.232150	0.000000
144.000000	-39138.418631	25900.396812	-28505.425573	0.000000	0.000000	0.000000	0.000000	0.000000	0.014000	-0.022000	-1.018000	192.000000	0.000000	112.000000	255.000000	80.000000	224.000000	48.000000	0.000000	0.000000	0.000000	1749122275.235050	0.000000
145.000000	-39149.795669	25915.752460	-28525.743309	0.000000	0.000000	0.000000	0.000000	0.000000	0.014000	-0.022000	-1.018000	192.000000	0.000000	0.000000	0.000000	0.000000	0.000000	0.000000	0.000000	0.000000	0.000000	1749122275.240048	0.000000
146.000000	-39156.478841	25923.620274	-28537.500326	0.000000	0.000000	0.000000	0.000000	0.000000	0.014000	-0.022000	-1.018000	192.000000	0.000000	0.000000	0.000000	0.000000	0.000000	0.000000	0.000000	0.000000	0.000000	1749122275.243979	0.000000
147.000000	-39149.616855	25914.366652	-28524.692777	0.000000	0.000000	0.000000	0.000000	0.000000	0.014000	-0.022000	-1.018000	192.000000	0.000000	0.000000	0.000000	0.000000	0.000000	0.000000	0.000000	0.000000	0.000000	1749122275.248065	0.000000
148.000000	-39138.508038	25901.447344	-28505.157352	0.000000	0.000000	0.000000	0.000000	0.000000	0.014000	-0.022000	-1.018000	192.000000	0.000000	0.000000	0.000000	0.000000	0.000000	0.000000	0.000000	0.000000	0.000000	1749122275.252071	0.000000
149.000000	-39138.262169	25903.079021	-28505.380870	0.000000	0.000000	0.000000	0.000000	0.000000	0.014000	-0.022000	-1.018000	192.000000	0.000000	0.000000	0.000000	0.000000	0.000000	0.000000	0.000000	0.000000	0.000000	1749122275.256096	0.000000
150.000000	-39148.163992	25916.847696	-28524.536315	0.000000	0.000000	0.000000	0.000000	0.000000	0.014000	-0.022000	-1.018000	192.000000	0.000000	0.000000	0.000000	0.000000	0.000000	0.000000	0.000000	0.000000	0.000000	1749122275.259094	0.000000
151.000000	-39150.801498	25920.960417	-28532.940570	0.000000	0.000000	0.000000	0.000000	0.000000	0.014000	-0.022000	-1.018000	192.000000	0.000000	0.000000	0.000000	0.000000	0.000000	0.000000	0.000000	0.000000	0.000000	1749122275.263086	0.000000
152.000000	-39141.838448	25910.231580	-28518.546047	0.000000	0.000000	0.000000	0.000000	0.000000	0.014000	-0.022000	-1.018000	192.000000	0.000000	0.000000	0.000000	0.000000	0.000000	0.000000	0.000000	0.000000	0.000000	1749122275.267148	0.000000
153.000000	-39131.333128	25898.295748	-28499.681175	0.000000	0.000000	0.000000	0.000000	0.000000	0.014000	-0.022000	-1.018000	192.000000	0.000000	0.000000	0.000000	0.000000	0.000000	0.000000	0.000000	0.000000	0.000000	1749122275.272120	0.000000
154.000000	-39131.891922	25901.045013	-28500.999928	0.000000	0.000000	0.000000	0.000000	0.000000	0.016000	-0.022000	-1.014000	192.000000	0.000000	128.000000	255.000000	80.000000	224.000000	80.000000	0.000000	0.000000	0.000000	1749122275.276119	0.000000
155.000000	-39138.351576	25911.326815	-28516.668501	0.000000	0.000000	0.000000	0.000000	0.000000	0.016000	-0.022000	-1.014000	192.000000	0.000000	0.000000	0.000000	0.000000	0.000000	0.000000	0.000000	0.000000	0.000000	1749122275.280150	0.000000
156.000000	-39142.620759	25916.579475	-28525.989178	0.000000	0.000000	0.000000	0.000000	0.000000	0.016000	-0.022000	-1.014000	192.000000	0.000000	0.000000	0.000000	0.000000	0.000000	0.000000	0.000000	0.000000	0.000000	1749122275.284051	0.000000
157.000000	-39136.205809	25907.482315	-28513.673367	0.000000	0.000000	0.000000	0.000000	0.000000	0.016000	-0.022000	-1.014000	192.000000	0.000000	0.000000	0.000000	0.000000	0.000000	0.000000	0.000000	0.000000	0.000000	1749122275.287097	0.000000
158.000000	-39126.192227	25895.077097	-28494.808494	0.000000	0.000000	0.000000	0.000000	0.000000	0.016000	-0.022000	-1.014000	192.000000	0.000000	0.000000	0.000000	0.000000	0.000000	0.000000	0.000000	0.000000	0.000000	1749122275.291145	0.000000
159.000000	-39126.818076	25897.424030	-28495.411992	0.000000	0.000000	0.000000	0.000000	0.000000	0.016000	-0.022000	-1.014000	192.000000	0.000000	0.000000	0.000000	0.000000	0.000000	0.000000	0.000000	0.000000	0.000000	1749122275.295150	0.000000
160.000000	-39134.261207	25908.443440	-28511.684061	0.000000	0.000000	0.000000	0.000000	0.000000	0.016000	-0.022000	-1.014000	192.000000	0.000000	0.000000	0.000000	0.000000	0.000000	0.000000	0.000000	0.000000	0.000000	1749122275.300152	0.000000
161.000000	-39137.792783	25912.511458	-28520.445945	0.000000	0.000000	0.000000	0.000000	0.000000	0.016000	-0.022000	-1.014000	192.000000	0.000000	0.000000	0.000000	0.000000	0.000000	0.000000	0.000000	0.000000	0.000000	1749122275.304209	0.000000
162.000000	-39132.249550	25904.420126	-28508.979500	0.000000	0.000000	0.000000	0.000000	0.000000	0.016000	-0.022000	-1.014000	192.000000	0.000000	0.000000	0.000000	0.000000	0.000000	0.000000	0.000000	0.000000	0.000000	1749122275.308258	0.000000
163.000000	-39121.341899	25891.657280	-28489.444076	0.000000	0.000000	0.000000	0.000000	0.000000	0.016000	-0.022000	-1.014000	192.000000	0.000000	0.000000	0.000000	0.000000	0.000000	0.000000	0.000000	0.000000	0.000000	1749122275.312313	0.000000
164.000000	-39120.000794	25892.126667	-28488.371192	0.000000	0.000000	0.000000	0.000000	0.000000	0.010000	-0.020000	-1.018000	192.000000	0.000000	80.000000	255.000000	96.000000	224.000000	48.000000	0.000000	0.000000	0.000000	1749122275.315146	0.000000
165.000000	-39131.914274	25907.191742	-28509.113611	0.000000	0.000000	0.000000	0.000000	0.000000	0.010000	-0.020000	-1.018000	192.000000	0.000000	0.000000	0.000000	0.000000	0.000000	0.000000	0.000000	0.000000	0.000000	1749122275.319216	0.000000
166.000000	-39135.781126	25911.840905	-28518.188419	0.000000	0.000000	0.000000	0.000000	0.000000	0.010000	-0.020000	-1.018000	192.000000	0.000000	0.000000	0.000000	0.000000	0.000000	0.000000	0.000000	0.000000	0.000000	1749122275.323193	0.000000
167.000000	-39127.309814	25900.821495	-28503.682137	0.000000	0.000000	0.000000	0.000000	0.000000	0.010000	-0.020000	-1.018000	192.000000	0.000000	0.000000	0.000000	0.000000	0.000000	0.000000	0.000000	0.000000	0.000000	1749122275.328242	0.000000
168.000000	-39118.994965	25890.494989	-28486.583052	0.000000	0.000000	0.000000	0.000000	0.000000	0.010000	-0.020000	-1.018000	192.000000	0.000000	0.000000	0.000000	0.000000	0.000000	0.000000	0.000000	0.000000	0.000000	1749122275.332181	0.000000
169.000000	-39119.062021	25892.551350	-28486.985384	0.000000	0.000000	0.000000	0.000000	0.000000	0.010000	-0.020000	-1.018000	192.000000	0.000000	0.000000	0.000000	0.000000	0.000000	0.000000	0.000000	0.000000	0.000000	1749122275.336186	0.000000
170.000000	-39127.265111	25904.040146	-28504.151524	0.000000	0.000000	0.000000	0.000000	0.000000	0.010000	-0.020000	-1.018000	192.000000	0.000000	0.000000	0.000000	0.000000	0.000000	0.000000	0.000000	0.000000	0.000000	1749122275.340188	0.000000
171.000000	-39132.964806	25910.320987	-28515.170934	0.000000	0.000000	0.000000	0.000000	0.000000	0.010000	-0.020000	-1.018000	192.000000	0.000000	0.000000	0.000000	0.000000	0.000000	0.000000	0.000000	0.000000	0.000000	1749122275.343237	0.000000
172.000000	-39127.063945	25901.916731	-28503.726840	0.000000	0.000000	0.000000	0.000000	0.000000	0.010000	-0.020000	-1.018000	192.000000	0.000000	0.000000	0.000000	0.000000	0.000000	0.000000	0.000000	0.000000	0.000000	1749122275.347300	0.000000
173.000000	-39115.239872	25887.902187	-28483.319698	0.000000	0.000000	0.000000	0.000000	0.000000	0.010000	-0.020000	-1.018000	192.000000	0.000000	0.000000	0.000000	0.000000	0.000000	0.000000	0.000000	0.000000	0.000000	1749122275.351292	0.000000
174.000000	-39115.485742	25889.779733	-28483.900843	0.000000	0.000000	0.000000	0.000000	0.000000	0.012000	-0.020000	-1.016000	192.000000	0.000000	96.000000	255.000000	96.000000	224.000000	64.000000	0.000000	0.000000	0.000000	1749122275.356188	0.000000
175.000000	-39125.700489	25903.257835	-28503.078640	0.000000	0.000000	0.000000	0.000000	0.000000	0.012000	-0.020000	-1.016000	192.000000	0.000000	0.000000	0.000000	0.000000	0.000000	0.000000	0.000000	0.000000	0.000000	1749122275.360286	0.000000
176.000000	-39129.679099	25908.085812	-28512.488724	0.000000	0.000000	0.000000	0.000000	0.000000	0.012000	-0.020000	-1.016000	192.000000	0.000000	0.000000	0.000000	0.000000	0.000000	0.000000	0.000000	0.000000	0.000000	1749122275.364202	0.000000
177.000000	-39124.471143	25900.597978	-28501.514018	0.000000	0.000000	0.000000	0.000000	0.000000	0.012000	-0.020000	-1.016000	192.000000	0.000000	0.000000	0.000000	0.000000	0.000000	0.000000	0.000000	0.000000	0.000000	1749122275.368268	0.000000
178.000000	-39114.122285	25888.058649	-28482.224462	0.000000	0.000000	0.000000	0.000000	0.000000	0.012000	-0.020000	-1.016000	192.000000	0.000000	0.000000	0.000000	0.000000	0.000000	0.000000	0.000000	0.000000	0.000000	1749122275.371235	0.000000
179.000000	-39111.998869	25887.432800	-28480.011640	0.000000	0.000000	0.000000	0.000000	0.000000	0.012000	-0.020000	-1.016000	192.000000	0.000000	0.000000	0.000000	0.000000	0.000000	0.000000	0.000000	0.000000	0.000000	1749122275.375271	0.000000
180.000000	-39121.744230	25900.128591	-28498.407125	0.000000	0.000000	0.000000	0.000000	0.000000	0.012000	-0.020000	-1.016000	192.000000	0.000000	0.000000	0.000000	0.000000	0.000000	0.000000	0.000000	0.000000	0.000000	1749122275.379200	0.000000
181.000000	-39125.946358	25904.241312	-28507.616044	0.000000	0.000000	0.000000	0.000000	0.000000	0.012000	-0.020000	-1.016000	192.000000	0.000000	0.000000	0.000000	0.000000	0.000000	0.000000	0.000000	0.000000	0.000000	1749122275.383281	0.000000
182.000000	-39119.240835	25894.428896	-28494.607329	0.000000	0.000000	0.000000	0.000000	0.000000	0.012000	-0.020000	-1.016000	192.000000	0.000000	0.000000	0.000000	0.000000	0.000000	0.000000	0.000000	0.000000	0.000000	1749122275.388287	0.000000
183.000000	-39108.266128	25880.660222	-28474.356648	0.000000	0.000000	0.000000	0.000000	0.000000	0.012000	-0.020000	-1.016000	192.000000	0.000000	0.000000	0.000000	0.000000	0.000000	0.000000	0.000000	0.000000	0.000000	1749122275.392478	0.000000
184.000000	-39109.316660	25882.738934	-28474.937794	0.000000	0.000000	0.000000	0.000000	0.000000	0.012000	-0.022000	-1.018000	192.000000	0.000000	96.000000	255.000000	80.000000	224.000000	48.000000	0.000000	0.000000	0.000000	1749122275.396370	0.000000
185.000000	-39120.045497	25896.351146	-28493.959128	0.000000	0.000000	0.000000	0.000000	0.000000	0.012000	-0.022000	-1.018000	192.000000	0.000000	0.000000	0.000000	0.000000	0.000000	0.000000	0.000000	0.000000	0.000000	1749122275.399265	0.000000
186.000000	-39124.538198	25900.530922	-28503.659785	0.000000	0.000000	0.000000	0.000000	0.000000	0.012000	-0.022000	-1.018000	192.000000	0.000000	0.000000	0.000000	0.000000	0.000000	0.000000	0.000000	0.000000	0.000000	1749122275.403286	0.000000
187.000000	-39117.363288	25890.204417	-28490.293442	0.000000	0.000000	0.000000	0.000000	0.000000	0.012000	-0.022000	-1.018000	192.000000	0.000000	0.000000	0.000000	0.000000	0.000000	0.000000	0.000000	0.000000	0.000000	1749122275.407290	0.000000
188.000000	-39109.271957	25879.386172	-28472.970840	0.000000	0.000000	0.000000	0.000000	0.000000	0.012000	-0.022000	-1.018000	192.000000	0.000000	0.000000	0.000000	0.000000	0.000000	0.000000	0.000000	0.000000	0.000000	1749122275.411354	0.000000
189.000000	-39108.042611	25879.140303	-28471.473273	0.000000	0.000000	0.000000	0.000000	0.000000	0.012000	-0.022000	-1.018000	192.000000	0.000000	0.000000	0.000000	0.000000	0.000000	0.000000	0.000000	0.000000	0.000000	1749122275.416286	0.000000
190.000000	-39113.876416	25888.081001	-28486.158369	0.000000	0.000000	0.000000	0.000000	0.000000	0.012000	-0.022000	-1.018000	192.000000	0.000000	0.000000	0.000000	0.000000	0.000000	0.000000	0.000000	0.000000	0.000000	1749122275.420304	0.000000
191.000000	-39119.263186	25893.959510	-28496.931910	0.000000	0.000000	0.000000	0.000000	0.000000	0.012000	-0.022000	-1.018000	192.000000	0.000000	0.000000	0.000000	0.000000	0.000000	0.000000	0.000000	0.000000	0.000000	1749122275.424435	0.000000
192.000000	-39111.551835	25883.722411	-28483.364401	0.000000	0.000000	0.000000	0.000000	0.000000	0.012000	-0.022000	-1.018000	192.000000	0.000000	0.000000	0.000000	0.000000	0.000000	0.000000	0.000000	0.000000	0.000000	1749122275.427349	0.000000
193.000000	-39101.806474	25872.010097	-28464.812453	0.000000	0.000000	0.000000	0.000000	0.000000	0.012000	-0.016000	-1.014000	192.000000	0.000000	96.000000	255.000000	128.000000	224.000000	80.000000	0.000000	0.000000	0.000000	1749122275.431357	0.000000
194.000000	-39102.432323	25874.245271	-28465.594764	0.000000	0.000000	0.000000	0.000000	0.000000	0.012000	-0.016000	-1.014000	192.000000	0.000000	0.000000	0.000000	0.000000	0.000000	0.000000	0.000000	0.000000	0.000000	1749122275.435312	0.000000
195.000000	-39112.132980	25887.030469	-28484.370230	0.000000	0.000000	0.000000	0.000000	0.000000	0.012000	-0.016000	-1.014000	192.000000	0.000000	0.000000	0.000000	0.000000	0.000000	0.000000	0.000000	0.000000	0.000000	1749122275.439360	0.000000
196.000000	-39116.513922	25891.947853	-28494.584977	0.000000	0.000000	0.000000	0.000000	0.000000	0.012000	-0.016000	-1.014000	192.000000	0.000000	0.000000	0.000000	0.000000	0.000000	0.000000	0.000000	0.000000	0.000000	1749122275.444321	0.000000
197.000000	-39108.780218	25881.643698	-28481.419799	0.000000	0.000000	0.000000	0.000000	0.000000	0.012000	-0.016000	-1.014000	192.000000	0.000000	0.000000	0.000000	0.000000	0.000000	0.000000	0.000000	0.000000	0.000000	1749122275.448333	0.000000
198.000000	-39099.526596	25870.356067	-28463.583107	0.000000	0.000000	0.000000	0.000000	0.000000	0.012000	-0.016000	-1.014000	192.000000	0.000000	0.000000	0.000000	0.000000	0.000000	0.000000	0.000000	0.000000	0.000000	1749122275.452379	0.000000
199.000000	-39099.593651	25872.367724	-28463.918384	0.000000	0.000000	0.000000	0.000000	0.000000	0.012000	-0.016000	-1.014000	192.000000	0.000000	0.000000	0.000000	0.000000	0.000000	0.000000	0.000000	0.000000	0.000000	1749122275.455364	0.000000
200.000000	-39108.668459	25884.974108	-28482.090352	0.000000	0.000000	0.000000	0.000000	0.000000	0.012000	-0.016000	-1.014000	192.000000	0.000000	0.000000	0.000000	0.000000	0.000000	0.000000	0.000000	0.000000	0.000000	1749122275.459366	0.000000
201.000000	-39112.512960	25889.265643	-28491.455733	0.000000	0.000000	0.000000	0.000000	0.000000	0.012000	-0.016000	-1.014000	192.000000	0.000000	0.000000	0.000000	0.000000	0.000000	0.000000	0.000000	0.000000	0.000000	1749122275.463579	0.000000
202.000000	-39105.315698	25879.587338	-28478.335259	0.000000	0.000000	0.000000	0.000000	0.000000	0.012000	-0.016000	-1.014000	192.000000	0.000000	0.000000	0.000000	0.000000	0.000000	0.000000	0.000000	0.000000	0.000000	1749122275.467512	0.000000
203.000000	-39095.346820	25867.472692	-28459.291572	0.000000	0.000000	0.000000	0.000000	0.000000	0.010000	-0.012000	-1.014000	192.000000	0.000000	80.000000	255.000000	160.000000	224.000000	80.000000	0.000000	0.000000	0.000000	1749122275.471541	0.000000
204.000000	-39093.961012	25867.204471	-28457.481081	0.000000	0.000000	0.000000	0.000000	0.000000	0.010000	-0.012000	-1.014000	192.000000	0.000000	0.000000	0.000000	0.000000	0.000000	0.000000	0.000000	0.000000	0.000000	1749122275.476497	0.000000
205.000000	-39102.141750	25877.866254	-28474.133131	0.000000	0.000000	0.000000	0.000000	0.000000	0.010000	-0.012000	-1.014000	192.000000	0.000000	0.000000	0.000000	0.000000	0.000000	0.000000	0.000000	0.000000	0.000000	1749122275.480518	0.000000
206.000000	-39107.215596	25883.118914	-28484.303175	0.000000	0.000000	0.000000	0.000000	0.000000	0.010000	-0.012000	-1.014000	192.000000	0.000000	0.000000	0.000000	0.000000	0.000000	0.000000	0.000000	0.000000	0.000000	1749122275.483564	0.000000
207.000000	-39098.587823	25871.853634	-28469.685134	0.000000	0.000000	0.000000	0.000000	0.000000	0.010000	-0.012000	-1.014000	192.000000	0.000000	0.000000	0.000000	0.000000	0.000000	0.000000	0.000000	0.000000	0.000000	1749122275.487460	0.000000
208.000000	-39087.769578	25859.001381	-28449.881488	0.000000	0.000000	0.000000	0.000000	0.000000	0.010000	-0.012000	-1.014000	192.000000	0.000000	0.000000	0.000000	0.000000	0.000000	0.000000	0.000000	0.000000	0.000000	1749122275.491410	0.000000
209.000000	-39090.004753	25862.711771	-28451.736683	0.000000	0.000000	0.000000	0.000000	0.000000	0.010000	-0.012000	-1.014000	192.000000	0.000000	0.000000	0.000000	0.000000	0.000000	0.000000	0.000000	0.000000	0.000000	1749122275.495465	0.000000
210.000000	-39101.627660	25877.307460	-28472.009715	0.000000	0.000000	0.000000	0.000000	0.000000	0.010000	-0.012000	-1.014000	192.000000	0.000000	0.000000	0.000000	0.000000	0.000000	0.000000	0.000000	0.000000	0.000000	1749122275.499554	0.000000
211.000000	-39106.209768	25882.381306	-28482.023297	0.000000	0.000000	0.000000	0.000000	0.000000	0.010000	-0.012000	-1.014000	192.000000	0.000000	0.000000	0.000000	0.000000	0.000000	0.000000	0.000000	0.000000	0.000000	1749122275.504500	0.000000
212.000000	-39099.236023	25872.725352	-28469.215747	0.000000	0.000000	0.000000	0.000000	0.000000	0.010000	-0.012000	-1.014000	192.000000	0.000000	0.000000	0.000000	0.000000	0.000000	0.000000	0.000000	0.000000	0.000000	1749122275.508683	0.000000
213.000000	-39088.149558	25859.247250	-28449.054474	0.000000	0.000000	0.000000	0.000000	0.000000	0.006000	-0.018000	-1.014000	192.000000	0.000000	48.000000	255.000000	112.000000	224.000000	80.000000	0.000000	0.000000	0.000000	1749122275.511530	0.000000
214.000000	-39087.434302	25860.029562	-28448.115700	0.000000	0.000000	0.000000	0.000000	0.000000	0.006000	-0.018000	-1.014000	192.000000	0.000000	0.000000	0.000000	0.000000	0.000000	0.000000	0.000000	0.000000	0.000000	1749122275.515484	0.000000
215.000000	-39096.799683	25872.658297	-28466.466482	0.000000	0.000000	0.000000	0.000000	0.000000	0.006000	-0.018000	-1.014000	192.000000	0.000000	0.000000	0.000000	0.000000	0.000000	0.000000	0.000000	0.000000	0.000000	1749122275.519545	0.000000
216.000000	-39101.582957	25877.821550	-28476.994154	0.000000	0.000000	0.000000	0.000000	0.000000	0.006000	-0.018000	-1.014000	192.000000	0.000000	0.000000	0.000000	0.000000	0.000000	0.000000	0.000000	0.000000	0.000000	1749122275.523483	0.000000
217.000000	-39092.195224	25865.975126	-28462.130244	0.000000	0.000000	0.000000	0.000000	0.000000	0.006000	-0.018000	-1.014000	192.000000	0.000000	0.000000	0.000000	0.000000	0.000000	0.000000	0.000000	0.000000	0.000000	1749122275.527475	0.000000
218.000000	-39082.449863	25854.352218	-28443.824165	0.000000	0.000000	0.000000	0.000000	0.000000	0.006000	-0.018000	-1.014000	192.000000	0.000000	0.000000	0.000000	0.000000	0.000000	0.000000	0.000000	0.000000	0.000000	1749122275.532626	0.000000
219.000000	-39083.500395	25857.280297	-28445.254677	0.000000	0.000000	0.000000	0.000000	0.000000	0.006000	-0.018000	-1.014000	192.000000	0.000000	0.000000	0.000000	0.000000	0.000000	0.000000	0.000000	0.000000	0.000000	1749122275.536619	0.000000
220.000000	-39093.156349	25870.490178	-28464.365418	0.000000	0.000000	0.000000	0.000000	0.000000	0.006000	-0.018000	-1.014000	192.000000	0.000000	0.000000	0.000000	0.000000	0.000000	0.000000	0.000000	0.000000	0.000000	1749122275.539538	0.000000
221.000000	-39099.101913	25877.307460	-28476.770637	0.000000	0.000000	0.000000	0.000000	0.000000	0.006000	-0.018000	-1.014000	192.000000	0.000000	0.000000	0.000000	0.000000	0.000000	0.000000	0.000000	0.000000	0.000000	1749122275.543566	0.000000
222.000000	-39090.943526	25867.584451	-28463.717218	0.000000	0.000000	0.000000	0.000000	0.000000	0.006000	-0.018000	-1.014000	192.000000	0.000000	0.000000	0.000000	0.000000	0.000000	0.000000	0.000000	0.000000	0.000000	1749122275.547734	0.000000
223.000000	-39081.019352	25856.453282	-28445.455843	0.000000	0.000000	0.000000	0.000000	0.000000	0.012000	-0.022000	-1.016000	192.000000	0.000000	96.000000	255.000000	80.000000	224.000000	64.000000	0.000000	0.000000	0.000000	1749122275.551528	0.000000
224.000000	-39078.583011	25856.475634	-28443.600648	0.000000	0.000000	0.000000	0.000000	0.000000	0.012000	-0.022000	-1.016000	192.000000	0.000000	0.000000	0.000000	0.000000	0.000000	0.000000	0.000000	0.000000	0.000000	1749122275.555650	0.000000
225.000000	-39085.690866	25867.718562	-28460.073884	0.000000	0.000000	0.000000	0.000000	0.000000	0.012000	-0.022000	-1.016000	192.000000	0.000000	0.000000	0.000000	0.000000	0.000000	0.000000	0.000000	0.000000	0.000000	1749122275.560691	0.000000
226.000000	-39091.614078	25874.871120	-28471.808549	0.000000	0.000000	0.000000	0.000000	0.000000	0.012000	-0.022000	-1.016000	192.000000	0.000000	0.000000	0.000000	0.000000	0.000000	0.000000	0.000000	0.000000	0.000000	1749122275.564675	0.000000
227.000000	-39087.099026	25868.523224	-28461.973782	0.000000	0.000000	0.000000	0.000000	0.000000	0.012000	-0.022000	-1.016000	192.000000	0.000000	0.000000	0.000000	0.000000	0.000000	0.000000	0.000000	0.000000	0.000000	1749122275.567637	0.000000
228.000000	-39077.308962	25857.347352	-28443.511241	0.000000	0.000000	0.000000	0.000000	0.000000	0.012000	-0.022000	-1.016000	192.000000	0.000000	0.000000	0.000000	0.000000	0.000000	0.000000	0.000000	0.000000	0.000000	1749122275.571634	0.000000
