171.000000	-73743.121176	127416.320433	50202.085102	0.000000	0.000000	0.000000	0.000000	0.000000	0.000000	0.000000	0.000000	192.000000	0.000000	0.000000	0.000000	0.000000	0.000000	0.000000	0.000000	0.000000	0.000000	1749113631.251414	0.000000
172.000000	-73615.671529	127361.178680	50020.901861	0.000000	0.000000	0.000000	0.000000	0.000000	0.000000	0.000000	0.000000	192.000000	0.000000	0.000000	0.000000	0.000000	0.000000	0.000000	0.000000	0.000000	0.000000	1749113631.251571	0.000000
173.000000	-73420.518448	127253.487975	49744.276672	0.000000	0.000000	0.000000	0.000000	0.000000	0.000000	0.000000	0.000000	192.000000	0.000000	0.000000	0.000000	0.000000	0.000000	0.000000	0.000000	0.000000	0.000000	1749113631.251678	0.000000
174.000000	-73431.671969	127228.878704	49752.837390	0.000000	0.000000	0.000000	0.000000	0.000000	0.012000	-0.014000	-1.018000	192.000000	0.000000	96.000000	255.000000	144.000000	224.000000	48.000000	0.000000	0.000000	0.000000	1749113631.251770	0.000000
0.000000	0.000000	0.000000	0.000000	0.000000	0.000000	0.000000	0.000000	0.000000	0.012000	-0.016000	-1.012000	192.000000	0.000000	96.000000	255.000000	128.000000	224.000000	96.000000	0.000000	0.000000	0.000000	1749113631.334251	0.000000
1.000000	-92510.495187	57741.909652	51016.985001	0.000000	0.000000	0.000000	0.000000	0.000000	0.012000	-0.016000	-1.012000	192.000000	0.000000	0.000000	0.000000	0.000000	0.000000	0.000000	0.000000	0.000000	0.000000	1749113631.351285	0.000000
2.000000	-92736.717193	57709.812547	50985.424338	0.000000	0.000000	0.000000	0.000000	0.000000	0.012000	-0.016000	-1.012000	192.000000	0.000000	0.000000	0.000000	0.000000	0.000000	0.000000	0.000000	0.000000	0.000000	1749113631.354290	0.000000
3.000000	-89276.845965	57803.242839	51282.389615	0.000000	0.000000	0.000000	0.000000	0.000000	0.012000	-0.016000	-1.012000	192.000000	0.000000	0.000000	0.000000	0.000000	0.000000	0.000000	0.000000	0.000000	0.000000	1749113631.358289	0.000000
4.000000	-86661.311884	57892.269837	51493.635952	0.000000	0.000000	0.000000	0.000000	0.000000	0.012000	-0.016000	-1.012000	192.000000	0.000000	0.000000	0.000000	0.000000	0.000000	0.000000	0.000000	0.000000	0.000000	1749113631.361289	0.000000
5.000000	-88923.688403	57853.377802	51330.468217	0.000000	0.000000	0.000000	0.000000	0.000000	0.012000	-0.016000	-1.012000	192.000000	0.000000	0.000000	0.000000	0.000000	0.000000	0.000000	0.000000	0.000000	0.000000	1749113631.365316	0.000000
6.000000	-92504.974306	57739.540367	51015.845062	0.000000	0.000000	0.000000	0.000000	0.000000	0.012000	-0.016000	-1.012000	192.000000	0.000000	0.000000	0.000000	0.000000	0.000000	0.000000	0.000000	0.000000	0.000000	1749113631.369292	0.000000
7.000000	-92751.603455	57708.471442	50983.859716	0.000000	0.000000	0.000000	0.000000	0.000000	0.008000	-0.016000	-1.012000	192.000000	0.000000	64.000000	255.000000	128.000000	224.000000	96.000000	0.000000	0.000000	0.000000	1749113631.373424	0.000000
8.000000	-89309.278346	57801.074720	51279.506240	0.000000	0.000000	0.000000	0.000000	0.000000	0.008000	-0.016000	-1.012000	192.000000	0.000000	0.000000	0.000000	0.000000	0.000000	0.000000	0.000000	0.000000	0.000000	1749113631.378571	0.000000
9.000000	-86648.057300	57890.973436	51493.010103	0.000000	0.000000	0.000000	0.000000	0.000000	0.008000	-0.016000	-1.012000	192.000000	0.000000	0.000000	0.000000	0.000000	0.000000	0.000000	0.000000	0.000000	0.000000	1749113631.381430	0.000000
10.000000	-88896.173405	57853.668374	51331.831674	0.000000	0.000000	0.000000	0.000000	0.000000	0.008000	-0.016000	-1.012000	192.000000	0.000000	0.000000	0.000000	0.000000	0.000000	0.000000	0.000000	0.000000	0.000000	1749113631.385310	0.000000
11.000000	-92493.485510	57741.663783	51018.661382	0.000000	0.000000	0.000000	0.000000	0.000000	0.008000	-0.016000	-1.012000	192.000000	0.000000	0.000000	0.000000	0.000000	0.000000	0.000000	0.000000	0.000000	0.000000	1749113631.389265	0.000000
12.000000	-92743.467420	57707.890297	50983.747957	0.000000	0.000000	0.000000	0.000000	0.000000	0.008000	-0.016000	-1.012000	192.000000	0.000000	0.000000	0.000000	0.000000	0.000000	0.000000	0.000000	0.000000	0.000000	1749113631.393328	0.000000
13.000000	-89304.450369	57797.945475	51276.064071	0.000000	0.000000	0.000000	0.000000	0.000000	0.008000	-0.016000	-1.012000	192.000000	0.000000	0.000000	0.000000	0.000000	0.000000	0.000000	0.000000	0.000000	0.000000	1749113631.397367	0.000000
14.000000	-86646.738547	57890.235828	51492.384254	0.000000	0.000000	0.000000	0.000000	0.000000	0.008000	-0.016000	-1.012000	192.000000	0.000000	0.000000	0.000000	0.000000	0.000000	0.000000	0.000000	0.000000	0.000000	1749113631.401336	0.000000
15.000000	-88889.154957	57854.450685	51333.306889	0.000000	0.000000	0.000000	0.000000	0.000000	0.008000	-0.016000	-1.012000	192.000000	0.000000	0.000000	0.000000	0.000000	0.000000	0.000000	0.000000	0.000000	0.000000	1749113631.406545	0.000000
16.000000	-92493.239640	57740.054457	51017.364981	0.000000	0.000000	0.000000	0.000000	0.000000	0.008000	-0.016000	-1.012000	192.000000	0.000000	0.000000	0.000000	0.000000	0.000000	0.000000	0.000000	0.000000	0.000000	1749113631.409557	0.000000
17.000000	-92747.334271	57707.912649	50983.122108	0.000000	0.000000	0.000000	0.000000	0.000000	0.008000	-0.014000	-1.020000	192.000000	0.000000	64.000000	255.000000	144.000000	224.000000	32.000000	0.000000	0.000000	0.000000	1749113631.413410	0.000000
18.000000	-89304.338611	57801.097071	51278.858039	0.000000	0.000000	0.000000	0.000000	0.000000	0.008000	-0.014000	-1.020000	192.000000	0.000000	0.000000	0.000000	0.000000	0.000000	0.000000	0.000000	0.000000	0.000000	1749113631.417381	0.000000
19.000000	-86638.088422	57890.593456	51492.563068	0.000000	0.000000	0.000000	0.000000	0.000000	0.008000	-0.014000	-1.020000	192.000000	0.000000	0.000000	0.000000	0.000000	0.000000	0.000000	0.000000	0.000000	0.000000	1749113631.421364	0.000000
20.000000	-88864.992722	57853.623671	51332.993964	0.000000	0.000000	0.000000	0.000000	0.000000	0.008000	-0.014000	-1.020000	192.000000	0.000000	0.000000	0.000000	0.000000	0.000000	0.000000	0.000000	0.000000	0.000000	1749113631.425358	0.000000
21.000000	-92480.342684	57739.830940	51017.767312	0.000000	0.000000	0.000000	0.000000	0.000000	0.008000	-0.014000	-1.020000	192.000000	0.000000	0.000000	0.000000	0.000000	0.000000	0.000000	0.000000	0.000000	0.000000	1749113631.429363	0.000000
22.000000	-92757.660777	57705.297495	50980.216382	0.000000	0.000000	0.000000	0.000000	0.000000	0.008000	-0.014000	-1.020000	192.000000	0.000000	0.000000	0.000000	0.000000	0.000000	0.000000	0.000000	0.000000	0.000000	1749113631.434439	0.000000
23.000000	-89337.016861	57797.006702	51274.074766	0.000000	0.000000	0.000000	0.000000	0.000000	0.008000	-0.014000	-1.020000	192.000000	0.000000	0.000000	0.000000	0.000000	0.000000	0.000000	0.000000	0.000000	0.000000	1749113631.437567	0.000000
24.000000	-86657.154460	57886.503087	51489.098548	0.000000	0.000000	0.000000	0.000000	0.000000	0.008000	-0.014000	-1.020000	192.000000	0.000000	0.000000	0.000000	0.000000	0.000000	0.000000	0.000000	0.000000	0.000000	1749113631.440576	0.000000
25.000000	-88866.803213	57850.293261	51330.736438	0.000000	0.000000	0.000000	0.000000	0.000000	0.008000	-0.014000	-1.020000	192.000000	0.000000	0.000000	0.000000	0.000000	0.000000	0.000000	0.000000	0.000000	0.000000	1749113631.445391	0.000000
26.000000	-92473.883030	57735.941736	51014.749827	0.000000	0.000000	0.000000	0.000000	0.000000	0.008000	-0.014000	-1.020000	192.000000	0.000000	0.000000	0.000000	0.000000	0.000000	0.000000	0.000000	0.000000	0.000000	1749113631.449396	0.000000
27.000000	-92755.135030	57700.558925	50975.880143	0.000000	0.000000	0.000000	0.000000	0.000000	0.012000	-0.018000	-1.020000	192.000000	0.000000	96.000000	255.000000	112.000000	224.000000	32.000000	0.000000	0.000000	0.000000	1749113631.453407	0.000000
28.000000	-89346.203428	57792.201077	51268.911513	0.000000	0.000000	0.000000	0.000000	0.000000	0.012000	-0.018000	-1.020000	192.000000	0.000000	0.000000	0.000000	0.000000	0.000000	0.000000	0.000000	0.000000	0.000000	1749113631.457422	0.000000
29.000000	-86649.733680	57884.871410	51487.802146	0.000000	0.000000	0.000000	0.000000	0.000000	0.012000	-0.018000	-1.020000	192.000000	0.000000	0.000000	0.000000	0.000000	0.000000	0.000000	0.000000	0.000000	0.000000	1749113631.462498	0.000000
30.000000	-88838.975291	57848.013383	51330.311755	0.000000	0.000000	0.000000	0.000000	0.000000	0.012000	-0.018000	-1.020000	192.000000	0.000000	0.000000	0.000000	0.000000	0.000000	0.000000	0.000000	0.000000	0.000000	1749113631.465436	0.000000
31.000000	-92465.411719	57733.639507	51013.587536	0.000000	0.000000	0.000000	0.000000	0.000000	0.012000	-0.018000	-1.020000	192.000000	0.000000	0.000000	0.000000	0.000000	0.000000	0.000000	0.000000	0.000000	0.000000	1749113631.468679	0.000000
32.000000	-92766.579123	57698.971951	50974.092004	0.000000	0.000000	0.000000	0.000000	0.000000	0.012000	-0.018000	-1.020000	192.000000	0.000000	0.000000	0.000000	0.000000	0.000000	0.000000	0.000000	0.000000	0.000000	1749113631.473456	0.000000
33.000000	-89364.755376	57792.201077	51269.492658	0.000000	0.000000	0.000000	0.000000	0.000000	0.012000	-0.018000	-1.020000	192.000000	0.000000	0.000000	0.000000	0.000000	0.000000	0.000000	0.000000	0.000000	0.000000	1749113631.477570	0.000000
34.000000	-86657.847364	57884.893761	51488.718568	0.000000	0.000000	0.000000	0.000000	0.000000	0.012000	-0.018000	-1.020000	192.000000	0.000000	0.000000	0.000000	0.000000	0.000000	0.000000	0.000000	0.000000	0.000000	1749113631.481426	0.000000
35.000000	-88833.365003	57849.063915	51332.546929	0.000000	0.000000	0.000000	0.000000	0.000000	0.012000	-0.018000	-1.020000	192.000000	0.000000	0.000000	0.000000	0.000000	0.000000	0.000000	0.000000	0.000000	0.000000	1749113631.485523	0.000000
36.000000	-92459.510858	57733.617155	51014.705123	0.000000	0.000000	0.000000	0.000000	0.000000	0.012000	-0.018000	-1.020000	192.000000	0.000000	0.000000	0.000000	0.000000	0.000000	0.000000	0.000000	0.000000	0.000000	1749113631.490546	0.000000
37.000000	-92770.490679	57699.933076	50975.097832	0.000000	0.000000	0.000000	0.000000	0.000000	0.014000	-0.016000	-1.014000	192.000000	0.000000	112.000000	255.000000	128.000000	224.000000	80.000000	0.000000	0.000000	0.000000	1749113631.493544	0.000000
38.000000	-89381.206260	57793.028092	51269.716176	0.000000	0.000000	0.000000	0.000000	0.000000	0.014000	-0.016000	-1.014000	192.000000	0.000000	0.000000	0.000000	0.000000	0.000000	0.000000	0.000000	0.000000	0.000000	1749113631.496546	0.000000
39.000000	-86660.753090	57885.452555	51489.903210	0.000000	0.000000	0.000000	0.000000	0.000000	0.014000	-0.016000	-1.014000	192.000000	0.000000	0.000000	0.000000	0.000000	0.000000	0.000000	0.000000	0.000000	0.000000	1749113631.500648	0.000000
40.000000	-88835.063736	57848.013383	51332.189302	0.000000	0.000000	0.000000	0.000000	0.000000	0.014000	-0.016000	-1.014000	192.000000	0.000000	0.000000	0.000000	0.000000	0.000000	0.000000	0.000000	0.000000	0.000000	1749113631.505684	0.000000
41.000000	-92456.582779	57731.896070	51013.408722	0.000000	0.000000	0.000000	0.000000	0.000000	0.014000	-0.016000	-1.014000	192.000000	0.000000	0.000000	0.000000	0.000000	0.000000	0.000000	0.000000	0.000000	0.000000	1749113631.509561	0.000000
42.000000	-92770.825955	57696.960294	50972.393271	0.000000	0.000000	0.000000	0.000000	0.000000	0.014000	-0.016000	-1.014000	192.000000	0.000000	0.000000	0.000000	0.000000	0.000000	0.000000	0.000000	0.000000	0.000000	1749113631.513522	0.000000
43.000000	-89387.330638	57788.133060	51264.195295	0.000000	0.000000	0.000000	0.000000	0.000000	0.014000	-0.016000	-1.014000	192.000000	0.000000	0.000000	0.000000	0.000000	0.000000	0.000000	0.000000	0.000000	0.000000	1749113631.517548	0.000000
44.000000	-86650.650102	57879.104659	51483.130632	0.000000	0.000000	0.000000	0.000000	0.000000	0.014000	-0.016000	-1.014000	192.000000	0.000000	0.000000	0.000000	0.000000	0.000000	0.000000	0.000000	0.000000	0.000000	1749113631.521531	0.000000
45.000000	-88799.703276	57844.414752	51329.440037	0.000000	0.000000	0.000000	0.000000	0.000000	0.014000	-0.016000	-1.014000	192.000000	0.000000	0.000000	0.000000	0.000000	0.000000	0.000000	0.000000	0.000000	0.000000	1749113631.524554	0.000000
46.000000	-92445.786887	57730.309097	51012.201728	0.000000	0.000000	0.000000	0.000000	0.000000	0.014000	-0.016000	-1.014000	192.000000	0.000000	0.000000	0.000000	0.000000	0.000000	0.000000	0.000000	0.000000	0.000000	1749113631.528808	0.000000
47.000000	-92776.190373	57695.798003	50970.381614	0.000000	0.000000	0.000000	0.000000	0.000000	0.010000	-0.016000	-1.010000	192.000000	0.000000	80.000000	255.000000	128.000000	224.000000	112.000000	0.000000	0.000000	0.000000	1749113631.533873	0.000000
48.000000	-89401.076961	57785.719071	51261.133106	0.000000	0.000000	0.000000	0.000000	0.000000	0.010000	-0.016000	-1.010000	192.000000	0.000000	0.000000	0.000000	0.000000	0.000000	0.000000	0.000000	0.000000	0.000000	1749113631.537653	0.000000
49.000000	-86651.544172	57876.690671	51480.180202	0.000000	0.000000	0.000000	0.000000	0.000000	0.010000	-0.016000	-1.010000	192.000000	0.000000	0.000000	0.000000	0.000000	0.000000	0.000000	0.000000	0.000000	0.000000	1749113631.541668	0.000000
50.000000	-88788.415645	57843.945365	51329.261223	0.000000	0.000000	0.000000	0.000000	0.000000	0.010000	-0.016000	-1.010000	192.000000	0.000000	0.000000	0.000000	0.000000	0.000000	0.000000	0.000000	0.000000	0.000000	1749113631.545706	0.000000
51.000000	-92433.627538	57729.258565	51011.978210	0.000000	0.000000	0.000000	0.000000	0.000000	0.010000	-0.016000	-1.010000	192.000000	0.000000	0.000000	0.000000	0.000000	0.000000	0.000000	0.000000	0.000000	0.000000	1749113631.549643	0.000000
52.000000	-92781.465385	57692.557000	50967.051204	0.000000	0.000000	0.000000	0.000000	0.000000	0.010000	-0.016000	-1.010000	192.000000	0.000000	0.000000	0.000000	0.000000	0.000000	0.000000	0.000000	0.000000	0.000000	1749113631.552616	0.000000
53.000000	-89418.243100	57783.662711	51258.517952	0.000000	0.000000	0.000000	0.000000	0.000000	0.010000	-0.016000	-1.010000	192.000000	0.000000	0.000000	0.000000	0.000000	0.000000	0.000000	0.000000	0.000000	0.000000	1749113631.556667	0.000000
54.000000	-86652.572352	57878.501162	51483.220039	0.000000	0.000000	0.000000	0.000000	0.000000	0.010000	-0.016000	-1.010000	192.000000	0.000000	0.000000	0.000000	0.000000	0.000000	0.000000	0.000000	0.000000	0.000000	1749113631.561710	0.000000
55.000000	-88779.877279	57841.039639	51328.054229	0.000000	0.000000	0.000000	0.000000	0.000000	0.010000	-0.016000	-1.010000	192.000000	0.000000	0.000000	0.000000	0.000000	0.000000	0.000000	0.000000	0.000000	0.000000	1749113631.565808	0.000000
56.000000	-92430.140666	57731.516091	51015.241565	0.000000	0.000000	0.000000	0.000000	0.000000	0.010000	-0.016000	-1.010000	192.000000	0.000000	0.000000	0.000000	0.000000	0.000000	0.000000	0.000000	0.000000	0.000000	1749113631.569648	0.000000
57.000000	-92784.035836	57698.144936	50973.220286	0.000000	0.000000	0.000000	0.000000	0.000000	0.010000	-0.022000	-1.016000	192.000000	0.000000	80.000000	255.000000	80.000000	224.000000	64.000000	0.000000	0.000000	0.000000	1749113631.573751	0.000000
58.000000	-89430.357746	57787.216638	51262.608321	0.000000	0.000000	0.000000	0.000000	0.000000	0.010000	-0.022000	-1.016000	192.000000	0.000000	0.000000	0.000000	0.000000	0.000000	0.000000	0.000000	0.000000	0.000000	1749113631.576710	0.000000
59.000000	-86648.973721	57880.579875	51486.215173	0.000000	0.000000	0.000000	0.000000	0.000000	0.010000	-0.022000	-1.016000	192.000000	0.000000	0.000000	0.000000	0.000000	0.000000	0.000000	0.000000	0.000000	0.000000	1749113631.580729	0.000000
60.000000	-88759.157212	57845.487636	51334.379772	0.000000	0.000000	0.000000	0.000000	0.000000	0.010000	-0.022000	-1.016000	192.000000	0.000000	0.000000	0.000000	0.000000	0.000000	0.000000	0.000000	0.000000	0.000000	1749113631.584734	0.000000
61.000000	-92420.641174	57729.750303	51014.660420	0.000000	0.000000	0.000000	0.000000	0.000000	0.010000	-0.022000	-1.016000	192.000000	0.000000	0.000000	0.000000	0.000000	0.000000	0.000000	0.000000	0.000000	0.000000	1749113631.588688	0.000000
62.000000	-92789.176737	57694.702768	50969.644006	0.000000	0.000000	0.000000	0.000000	0.000000	0.010000	-0.022000	-1.016000	192.000000	0.000000	0.000000	0.000000	0.000000	0.000000	0.000000	0.000000	0.000000	0.000000	1749113631.593857	0.000000
63.000000	-89441.041880	57783.975635	51259.434373	0.000000	0.000000	0.000000	0.000000	0.000000	0.010000	-0.022000	-1.016000	192.000000	0.000000	0.000000	0.000000	0.000000	0.000000	0.000000	0.000000	0.000000	0.000000	1749113631.597907	0.000000
64.000000	-86658.272047	57876.936540	51483.018873	0.000000	0.000000	0.000000	0.000000	0.000000	0.010000	-0.022000	-1.016000	192.000000	0.000000	0.000000	0.000000	0.000000	0.000000	0.000000	0.000000	0.000000	0.000000	1749113631.601762	0.000000
65.000000	-88759.201915	57842.827778	51332.457522	0.000000	0.000000	0.000000	0.000000	0.000000	0.010000	-0.022000	-1.016000	192.000000	0.000000	0.000000	0.000000	0.000000	0.000000	0.000000	0.000000	0.000000	0.000000	1749113631.604722	0.000000
66.000000	-92415.656735	57728.766826	51014.883937	0.000000	0.000000	0.000000	0.000000	0.000000	0.014000	-0.018000	-1.016000	192.000000	0.000000	112.000000	255.000000	112.000000	224.000000	64.000000	0.000000	0.000000	0.000000	1749113631.608724	0.000000
67.000000	-92792.976534	57691.797041	50966.917094	0.000000	0.000000	0.000000	0.000000	0.000000	0.014000	-0.018000	-1.016000	192.000000	0.000000	0.000000	0.000000	0.000000	0.000000	0.000000	0.000000	0.000000	0.000000	1749113631.612701	0.000000
68.000000	-89456.263418	57781.114612	51255.768687	0.000000	0.000000	0.000000	0.000000	0.000000	0.014000	-0.018000	-1.016000	192.000000	0.000000	0.000000	0.000000	0.000000	0.000000	0.000000	0.000000	0.000000	0.000000	1749113631.617712	0.000000
69.000000	-86654.561657	57872.868523	51479.062614	0.000000	0.000000	0.000000	0.000000	0.000000	0.014000	-0.018000	-1.016000	192.000000	0.000000	0.000000	0.000000	0.000000	0.000000	0.000000	0.000000	0.000000	0.000000	1749113631.620722	0.000000
70.000000	-88743.823915	57840.905528	51331.362287	0.000000	0.000000	0.000000	0.000000	0.000000	0.014000	-0.018000	-1.016000	192.000000	0.000000	0.000000	0.000000	0.000000	0.000000	0.000000	0.000000	0.000000	0.000000	1749113631.624810	0.000000
71.000000	-92408.571232	57727.246908	51013.743998	0.000000	0.000000	0.000000	0.000000	0.000000	0.014000	-0.018000	-1.016000	192.000000	0.000000	0.000000	0.000000	0.000000	0.000000	0.000000	0.000000	0.000000	0.000000	1749113631.629035	0.000000
72.000000	-92793.848252	57688.466631	50963.720794	0.000000	0.000000	0.000000	0.000000	0.000000	0.014000	-0.018000	-1.016000	192.000000	0.000000	0.000000	0.000000	0.000000	0.000000	0.000000	0.000000	0.000000	0.000000	1749113631.633814	0.000000
73.000000	-89464.444156	57777.895961	51251.790077	0.000000	0.000000	0.000000	0.000000	0.000000	0.014000	-0.018000	-1.016000	192.000000	0.000000	0.000000	0.000000	0.000000	0.000000	0.000000	0.000000	0.000000	0.000000	1749113631.637838	0.000000
74.000000	-86644.391614	57874.746069	51480.560181	0.000000	0.000000	0.000000	0.000000	0.000000	0.014000	-0.018000	-1.016000	192.000000	0.000000	0.000000	0.000000	0.000000	0.000000	0.000000	0.000000	0.000000	0.000000	1749113631.641843	0.000000
75.000000	-88706.340040	57843.878310	51335.229139	0.000000	0.000000	0.000000	0.000000	0.000000	0.014000	-0.018000	-1.016000	192.000000	0.000000	0.000000	0.000000	0.000000	0.000000	0.000000	0.000000	0.000000	0.000000	1749113631.644770	0.000000
76.000000	-92392.835604	57729.593841	51016.493263	0.000000	0.000000	0.000000	0.000000	0.000000	0.012000	-0.014000	-1.018000	192.000000	0.000000	96.000000	255.000000	144.000000	224.000000	48.000000	0.000000	0.000000	0.000000	1749113631.648840	0.000000
77.000000	-92797.089255	57692.445242	50967.028852	0.000000	0.000000	0.000000	0.000000	0.000000	0.012000	-0.014000	-1.018000	192.000000	0.000000	0.000000	0.000000	0.000000	0.000000	0.000000	0.000000	0.000000	0.000000	1749113631.652793	0.000000
78.000000	-89474.703607	57780.019376	51253.846437	0.000000	0.000000	0.000000	0.000000	0.000000	0.012000	-0.014000	-1.018000	192.000000	0.000000	0.000000	0.000000	0.000000	0.000000	0.000000	0.000000	0.000000	0.000000	1749113631.656922	0.000000
79.000000	-86653.377015	57875.394270	51481.633065	0.000000	0.000000	0.000000	0.000000	0.000000	0.012000	-0.014000	-1.018000	192.000000	0.000000	0.000000	0.000000	0.000000	0.000000	0.000000	0.000000	0.000000	0.000000	1749113631.661064	0.000000
80.000000	-88703.322554	57844.370049	51336.771409	0.000000	0.000000	0.000000	0.000000	0.000000	0.012000	-0.014000	-1.018000	192.000000	0.000000	0.000000	0.000000	0.000000	0.000000	0.000000	0.000000	0.000000	0.000000	1749113631.665852	0.000000
81.000000	-92384.945438	57729.593841	51018.102588	0.000000	0.000000	0.000000	0.000000	0.000000	0.012000	-0.014000	-1.018000	192.000000	0.000000	0.000000	0.000000	0.000000	0.000000	0.000000	0.000000	0.000000	0.000000	1749113631.669808	0.000000
82.000000	-92798.430359	57690.545343	50965.531285	0.000000	0.000000	0.000000	0.000000	0.000000	0.012000	-0.014000	-1.018000	192.000000	0.000000	0.000000	0.000000	0.000000	0.000000	0.000000	0.000000	0.000000	0.000000	1749113631.672883	0.000000
83.000000	-89486.952363	57780.019376	51253.399402	0.000000	0.000000	0.000000	0.000000	0.000000	0.012000	-0.014000	-1.018000	192.000000	0.000000	0.000000	0.000000	0.000000	0.000000	0.000000	0.000000	0.000000	0.000000	1749113631.676932	0.000000
84.000000	-86644.391614	57874.142572	51481.230734	0.000000	0.000000	0.000000	0.000000	0.000000	0.012000	-0.014000	-1.018000	192.000000	0.000000	0.000000	0.000000	0.000000	0.000000	0.000000	0.000000	0.000000	0.000000	1749113631.680874	0.000000
85.000000	-88691.498481	57841.620784	51335.340897	0.000000	0.000000	0.000000	0.000000	0.000000	0.012000	-0.014000	-1.018000	192.000000	0.000000	0.000000	0.000000	0.000000	0.000000	0.000000	0.000000	0.000000	0.000000	1749113631.684980	0.000000
86.000000	-92383.693741	57727.738646	51017.096760	0.000000	0.000000	0.000000	0.000000	0.000000	0.010000	-0.016000	-1.016000	192.000000	0.000000	80.000000	255.000000	128.000000	224.000000	64.000000	0.000000	0.000000	0.000000	1749113631.689058	0.000000
87.000000	-92809.516824	57685.002111	50960.457439	0.000000	0.000000	0.000000	0.000000	0.000000	0.010000	-0.016000	-1.016000	192.000000	0.000000	0.000000	0.000000	0.000000	0.000000	0.000000	0.000000	0.000000	0.000000	1749113631.693968	0.000000
88.000000	-89516.031982	57772.375080	51245.598643	0.000000	0.000000	0.000000	0.000000	0.000000	0.010000	-0.016000	-1.016000	192.000000	0.000000	0.000000	0.000000	0.000000	0.000000	0.000000	0.000000	0.000000	0.000000	1749113631.697908	0.000000
89.000000	-86654.584009	57868.264063	51476.156888	0.000000	0.000000	0.000000	0.000000	0.000000	0.010000	-0.016000	-1.016000	192.000000	0.000000	0.000000	0.000000	0.000000	0.000000	0.000000	0.000000	0.000000	0.000000	1749113631.700866	0.000000
90.000000	-88663.536449	57835.943441	51331.809322	0.000000	0.000000	0.000000	0.000000	0.000000	0.010000	-0.016000	-1.016000	192.000000	0.000000	0.000000	0.000000	0.000000	0.000000	0.000000	0.000000	0.000000	0.000000	1749113631.704926	0.000000
91.000000	-92370.081528	57725.235251	51015.532138	0.000000	0.000000	0.000000	0.000000	0.000000	0.010000	-0.016000	-1.016000	192.000000	0.000000	0.000000	0.000000	0.000000	0.000000	0.000000	0.000000	0.000000	0.000000	1749113631.708997	0.000000
92.000000	-92806.119359	57685.203276	50960.144515	0.000000	0.000000	0.000000	0.000000	0.000000	0.010000	-0.016000	-1.016000	192.000000	0.000000	0.000000	0.000000	0.000000	0.000000	0.000000	0.000000	0.000000	0.000000	1749113631.712955	0.000000
93.000000	-89508.320631	57771.972748	51245.084553	0.000000	0.000000	0.000000	0.000000	0.000000	0.010000	-0.016000	-1.016000	192.000000	0.000000	0.000000	0.000000	0.000000	0.000000	0.000000	0.000000	0.000000	0.000000	1749113631.717021	0.000000
94.000000	-86641.463535	57867.459401	51475.106356	0.000000	0.000000	0.000000	0.000000	0.000000	0.010000	-0.016000	-1.016000	192.000000	0.000000	0.000000	0.000000	0.000000	0.000000	0.000000	0.000000	0.000000	0.000000	1749113631.722147	0.000000
95.000000	-88641.184704	57835.496406	51331.742267	0.000000	0.000000	0.000000	0.000000	0.000000	0.010000	-0.016000	-1.016000	192.000000	0.000000	0.000000	0.000000	0.000000	0.000000	0.000000	0.000000	0.000000	0.000000	1749113631.725940	0.000000
96.000000	-92351.574284	57720.720198	51011.799396	0.000000	0.000000	0.000000	0.000000	0.000000	0.008000	-0.020000	-1.018000	192.000000	0.000000	64.000000	255.000000	96.000000	224.000000	48.000000	0.000000	0.000000	0.000000	1749113631.728961	0.000000
97.000000	-92806.946374	57683.392785	50958.088155	0.000000	0.000000	0.000000	0.000000	0.000000	0.008000	-0.020000	-1.018000	192.000000	0.000000	0.000000	0.000000	0.000000	0.000000	0.000000	0.000000	0.000000	0.000000	1749113631.732934	0.000000
98.000000	-89520.010593	57770.564588	51242.871731	0.000000	0.000000	0.000000	0.000000	0.000000	0.008000	-0.020000	-1.018000	192.000000	0.000000	0.000000	0.000000	0.000000	0.000000	0.000000	0.000000	0.000000	0.000000	1749113631.736954	0.000000
99.000000	-86646.403271	57867.437049	51475.329873	0.000000	0.000000	0.000000	0.000000	0.000000	0.008000	-0.020000	-1.018000	192.000000	0.000000	0.000000	0.000000	0.000000	0.000000	0.000000	0.000000	0.000000	0.000000	1749113631.741068	0.000000
100.000000	-88635.417954	57838.044505	51334.715049	0.000000	0.000000	0.000000	0.000000	0.000000	0.008000	-0.020000	-1.018000	192.000000	0.000000	0.000000	0.000000	0.000000	0.000000	0.000000	0.000000	0.000000	0.000000	1749113631.745065	0.000000
101.000000	-92345.740479	57723.581222	51014.950992	0.000000	0.000000	0.000000	0.000000	0.000000	0.008000	-0.020000	-1.018000	192.000000	0.000000	0.000000	0.000000	0.000000	0.000000	0.000000	0.000000	0.000000	0.000000	1749113631.749163	0.000000
102.000000	-92806.007601	57684.286855	50958.825762	0.000000	0.000000	0.000000	0.000000	0.000000	0.008000	-0.020000	-1.018000	192.000000	0.000000	0.000000	0.000000	0.000000	0.000000	0.000000	0.000000	0.000000	0.000000	1749113631.754111	0.000000
103.000000	-89531.186465	57769.491705	51241.038888	0.000000	0.000000	0.000000	0.000000	0.000000	0.008000	-0.020000	-1.018000	192.000000	0.000000	0.000000	0.000000	0.000000	0.000000	0.000000	0.000000	0.000000	0.000000	1749113631.757030	0.000000
104.000000	-86640.547113	57864.508970	51472.468850	0.000000	0.000000	0.000000	0.000000	0.000000	0.008000	-0.020000	-1.018000	192.000000	0.000000	0.000000	0.000000	0.000000	0.000000	0.000000	0.000000	0.000000	0.000000	1749113631.761020	0.000000
105.000000	-88611.814512	57834.043543	51332.323412	0.000000	0.000000	0.000000	0.000000	0.000000	0.008000	-0.020000	-1.018000	192.000000	0.000000	0.000000	0.000000	0.000000	0.000000	0.000000	0.000000	0.000000	0.000000	1749113631.765055	0.000000
106.000000	-92333.938758	57722.240117	51014.571013	0.000000	0.000000	0.000000	0.000000	0.000000	0.006000	-0.016000	-1.016000	192.000000	0.000000	48.000000	255.000000	128.000000	224.000000	64.000000	0.000000	0.000000	0.000000	1749113631.769033	0.000000
107.000000	-92813.338973	57680.643520	50955.025966	0.000000	0.000000	0.000000	0.000000	0.000000	0.006000	-0.016000	-1.016000	192.000000	0.000000	0.000000	0.000000	0.000000	0.000000	0.000000	0.000000	0.000000	0.000000	1749113631.773077	0.000000
108.000000	-89551.615960	57767.457696	51239.317803	0.000000	0.000000	0.000000	0.000000	0.000000	0.006000	-0.016000	-1.016000	192.000000	0.000000	0.000000	0.000000	0.000000	0.000000	0.000000	0.000000	0.000000	0.000000	1749113631.777137	0.000000
109.000000	-86651.946503	57863.033755	51471.731242	0.000000	0.000000	0.000000	0.000000	0.000000	0.006000	-0.016000	-1.016000	192.000000	0.000000	0.000000	0.000000	0.000000	0.000000	0.000000	0.000000	0.000000	0.000000	1749113631.782067	0.000000
110.000000	-88615.279033	57831.070761	51330.356458	0.000000	0.000000	0.000000	0.000000	0.000000	0.006000	-0.016000	-1.016000	192.000000	0.000000	0.000000	0.000000	0.000000	0.000000	0.000000	0.000000	0.000000	0.000000	1749113631.785119	0.000000
111.000000	-92331.524769	57716.987457	51010.480644	0.000000	0.000000	0.000000	0.000000	0.000000	0.006000	-0.016000	-1.016000	192.000000	0.000000	0.000000	0.000000	0.000000	0.000000	0.000000	0.000000	0.000000	0.000000	1749113631.789132	0.000000
112.000000	-92820.625641	57677.134297	50951.717907	0.000000	0.000000	0.000000	0.000000	0.000000	0.006000	-0.016000	-1.016000	192.000000	0.000000	0.000000	0.000000	0.000000	0.000000	0.000000	0.000000	0.000000	0.000000	1749113631.793147	0.000000
113.000000	-89580.360303	57766.429516	51237.753181	0.000000	0.000000	0.000000	0.000000	0.000000	0.006000	-0.016000	-1.016000	192.000000	0.000000	0.000000	0.000000	0.000000	0.000000	0.000000	0.000000	0.000000	0.000000	1749113631.797127	0.000000
114.000000	-86655.209858	57864.196046	51473.519382	0.000000	0.000000	0.000000	0.000000	0.000000	0.006000	-0.016000	-1.016000	192.000000	0.000000	0.000000	0.000000	0.000000	0.000000	0.000000	0.000000	0.000000	0.000000	1749113631.801152	0.000000
115.000000	-88609.177006	57837.955098	51338.179569	0.000000	0.000000	0.000000	0.000000	0.000000	0.010000	-0.012000	-1.012000	192.000000	0.000000	80.000000	255.000000	160.000000	224.000000	96.000000	0.000000	0.000000	0.000000	1749113631.805155	0.000000
116.000000	-92328.775505	57724.676457	51018.996658	0.000000	0.000000	0.000000	0.000000	0.000000	0.010000	-0.012000	-1.012000	192.000000	0.000000	0.000000	0.000000	0.000000	0.000000	0.000000	0.000000	0.000000	0.000000	1749113631.810293	0.000000
117.000000	-92824.201921	57684.286855	50959.205742	0.000000	0.000000	0.000000	0.000000	0.000000	0.010000	-0.012000	-1.012000	192.000000	0.000000	0.000000	0.000000	0.000000	0.000000	0.000000	0.000000	0.000000	0.000000	1749113631.813167	0.000000
118.000000	-89592.586707	57771.413955	51242.469399	0.000000	0.000000	0.000000	0.000000	0.000000	0.010000	-0.012000	-1.012000	192.000000	0.000000	0.000000	0.000000	0.000000	0.000000	0.000000	0.000000	0.000000	0.000000	1749113631.816140	0.000000
119.000000	-86647.722023	57868.241712	51477.699158	0.000000	0.000000	0.000000	0.000000	0.000000	0.010000	-0.012000	-1.012000	192.000000	0.000000	0.000000	0.000000	0.000000	0.000000	0.000000	0.000000	0.000000	0.000000	1749113631.821142	0.000000
120.000000	-88573.905954	57838.089208	51339.855950	0.000000	0.000000	0.000000	0.000000	0.000000	0.010000	-0.012000	-1.012000	192.000000	0.000000	0.000000	0.000000	0.000000	0.000000	0.000000	0.000000	0.000000	0.000000	1749113631.825231	0.000000
121.000000	-92314.559795	57723.290649	51018.370809	0.000000	0.000000	0.000000	0.000000	0.000000	0.010000	-0.012000	-1.012000	192.000000	0.000000	0.000000	0.000000	0.000000	0.000000	0.000000	0.000000	0.000000	0.000000	1749113631.829204	0.000000
122.000000	-92822.257319	57679.816506	50954.556579	0.000000	0.000000	0.000000	0.000000	0.000000	0.010000	-0.012000	-1.012000	192.000000	0.000000	0.000000	0.000000	0.000000	0.000000	0.000000	0.000000	0.000000	0.000000	1749113631.833202	0.000000
123.000000	-89587.021123	57764.127286	51235.093324	0.000000	0.000000	0.000000	0.000000	0.000000	0.010000	-0.012000	-1.012000	192.000000	0.000000	0.000000	0.000000	0.000000	0.000000	0.000000	0.000000	0.000000	0.000000	1749113631.838327	0.000000
124.000000	-86650.381881	57861.312671	51470.725414	0.000000	0.000000	0.000000	0.000000	0.000000	0.010000	-0.012000	-1.012000	192.000000	0.000000	0.000000	0.000000	0.000000	0.000000	0.000000	0.000000	0.000000	0.000000	1749113631.841355	0.000000
125.000000	-88569.770881	57833.618859	51335.899691	0.000000	0.000000	0.000000	0.000000	0.000000	0.014000	-0.014000	-1.006000	192.000000	0.000000	112.000000	255.000000	144.000000	224.000000	144.000000	0.000000	0.000000	0.000000	1749113631.845287	0.000000
126.000000	-92304.233289	57718.976762	51014.973344	0.000000	0.000000	0.000000	0.000000	0.000000	0.014000	-0.014000	-1.006000	192.000000	0.000000	0.000000	0.000000	0.000000	0.000000	0.000000	0.000000	0.000000	0.000000	1749113631.849271	0.000000
127.000000	-92824.783066	57675.592026	50950.309747	0.000000	0.000000	0.000000	0.000000	0.000000	0.014000	-0.014000	-1.006000	192.000000	0.000000	0.000000	0.000000	0.000000	0.000000	0.000000	0.000000	0.000000	0.000000	1749113631.853222	0.000000
128.000000	-89604.611946	57761.065097	51231.449989	0.000000	0.000000	0.000000	0.000000	0.000000	0.014000	-0.014000	-1.006000	192.000000	0.000000	0.000000	0.000000	0.000000	0.000000	0.000000	0.000000	0.000000	0.000000	1749113631.857246	0.000000
129.000000	-86654.181678	57858.406944	51468.512591	0.000000	0.000000	0.000000	0.000000	0.000000	0.014000	-0.014000	-1.006000	192.000000	0.000000	0.000000	0.000000	0.000000	0.000000	0.000000	0.000000	0.000000	0.000000	1749113631.861262	0.000000
130.000000	-88554.862267	57830.646077	51334.111552	0.000000	0.000000	0.000000	0.000000	0.000000	0.014000	-0.014000	-1.006000	192.000000	0.000000	0.000000	0.000000	0.000000	0.000000	0.000000	0.000000	0.000000	0.000000	1749113631.866263	0.000000
131.000000	-92297.214842	57715.936925	51012.626411	0.000000	0.000000	0.000000	0.000000	0.000000	0.014000	-0.014000	-1.006000	192.000000	0.000000	0.000000	0.000000	0.000000	0.000000	0.000000	0.000000	0.000000	0.000000	1749113631.869232	0.000000
132.000000	-92831.622700	57674.072108	50948.678070	0.000000	0.000000	0.000000	0.000000	0.000000	0.014000	-0.014000	-1.006000	192.000000	0.000000	0.000000	0.000000	0.000000	0.000000	0.000000	0.000000	0.000000	0.000000	1749113631.872326	0.000000
133.000000	-89629.869417	57761.713298	51231.829969	0.000000	0.000000	0.000000	0.000000	0.000000	0.014000	-0.014000	-1.006000	192.000000	0.000000	0.000000	0.000000	0.000000	0.000000	0.000000	0.000000	0.000000	0.000000	1749113631.877367	0.000000
134.000000	-86655.455727	57859.479828	51470.144268	0.000000	0.000000	0.000000	0.000000	0.000000	0.014000	-0.014000	-1.006000	192.000000	0.000000	0.000000	0.000000	0.000000	0.000000	0.000000	0.000000	0.000000	0.000000	1749113631.881282	0.000000
135.000000	-88536.779706	57833.328287	51338.581900	0.000000	0.000000	0.000000	0.000000	0.000000	0.012000	-0.014000	-1.008000	192.000000	0.000000	96.000000	255.000000	144.000000	224.000000	128.000000	0.000000	0.000000	0.000000	1749113631.885398	0.000000
136.000000	-92283.602629	57720.899012	51018.773141	0.000000	0.000000	0.000000	0.000000	0.000000	0.012000	-0.014000	-1.008000	192.000000	0.000000	0.000000	0.000000	0.000000	0.000000	0.000000	0.000000	0.000000	0.000000	1749113631.889326	0.000000
137.000000	-92831.019203	57676.888427	50951.449686	0.000000	0.000000	0.000000	0.000000	0.000000	0.012000	-0.014000	-1.008000	192.000000	0.000000	0.000000	0.000000	0.000000	0.000000	0.000000	0.000000	0.000000	0.000000	1749113631.893348	0.000000
138.000000	-89639.301853	57761.199207	51231.293527	0.000000	0.000000	0.000000	0.000000	0.000000	0.012000	-0.014000	-1.008000	192.000000	0.000000	0.000000	0.000000	0.000000	0.000000	0.000000	0.000000	0.000000	0.000000	1749113631.897319	0.000000
139.000000	-86660.529573	57858.339889	51469.116088	0.000000	0.000000	0.000000	0.000000	0.000000	0.012000	-0.014000	-1.008000	192.000000	0.000000	0.000000	0.000000	0.000000	0.000000	0.000000	0.000000	0.000000	0.000000	1749113631.900409	0.000000
140.000000	-88534.700994	57833.440046	51339.073639	0.000000	0.000000	0.000000	0.000000	0.000000	0.012000	-0.014000	-1.008000	192.000000	0.000000	0.000000	0.000000	0.000000	0.000000	0.000000	0.000000	0.000000	0.000000	1749113631.905587	0.000000
141.000000	-92282.216821	57719.088521	51017.521443	0.000000	0.000000	0.000000	0.000000	0.000000	0.012000	-0.014000	-1.008000	192.000000	0.000000	0.000000	0.000000	0.000000	0.000000	0.000000	0.000000	0.000000	0.000000	1749113631.909356	0.000000
142.000000	-92838.596444	57673.736831	50948.074573	0.000000	0.000000	0.000000	0.000000	0.000000	0.012000	-0.014000	-1.008000	192.000000	0.000000	0.000000	0.000000	0.000000	0.000000	0.000000	0.000000	0.000000	0.000000	1749113631.913423	0.000000
143.000000	-89657.093842	57761.087449	51230.399457	0.000000	0.000000	0.000000	0.000000	0.000000	0.012000	-0.014000	-1.008000	192.000000	0.000000	0.000000	0.000000	0.000000	0.000000	0.000000	0.000000	0.000000	0.000000	1749113631.917387	0.000000
144.000000	-86655.455727	57862.385555	51473.631140	0.000000	0.000000	0.000000	0.000000	0.000000	0.012000	-0.014000	-1.008000	192.000000	0.000000	0.000000	0.000000	0.000000	0.000000	0.000000	0.000000	0.000000	0.000000	1749113631.921376	0.000000
145.000000	-88514.249148	57836.345772	51343.298119	0.000000	0.000000	0.000000	0.000000	0.000000	0.012000	-0.016000	-1.014000	192.000000	0.000000	96.000000	255.000000	128.000000	224.000000	80.000000	0.000000	0.000000	0.000000	1749113631.925368	0.000000
146.000000	-92270.660969	57721.882489	51021.254184	0.000000	0.000000	0.000000	0.000000	0.000000	0.012000	-0.016000	-1.014000	192.000000	0.000000	0.000000	0.000000	0.000000	0.000000	0.000000	0.000000	0.000000	0.000000	1749113631.928364	0.000000
147.000000	-92839.222293	57678.251884	50952.813143	0.000000	0.000000	0.000000	0.000000	0.000000	0.012000	-0.016000	-1.014000	192.000000	0.000000	0.000000	0.000000	0.000000	0.000000	0.000000	0.000000	0.000000	0.000000	1749113631.932522	0.000000
148.000000	-89670.370778	57764.239045	51233.193425	0.000000	0.000000	0.000000	0.000000	0.000000	0.012000	-0.016000	-1.014000	192.000000	0.000000	0.000000	0.000000	0.000000	0.000000	0.000000	0.000000	0.000000	0.000000	1749113631.937615	0.000000
149.000000	-86666.229268	57863.592549	51474.972245	0.000000	0.000000	0.000000	0.000000	0.000000	0.012000	-0.016000	-1.014000	192.000000	0.000000	0.000000	0.000000	0.000000	0.000000	0.000000	0.000000	0.000000	0.000000	1749113631.941462	0.000000
150.000000	-88502.045095	57838.469188	51346.539121	0.000000	0.000000	0.000000	0.000000	0.000000	0.012000	-0.016000	-1.014000	192.000000	0.000000	0.000000	0.000000	0.000000	0.000000	0.000000	0.000000	0.000000	0.000000	1749113631.945346	0.000000
151.000000	-92259.485097	57723.178890	51023.534062	0.000000	0.000000	0.000000	0.000000	0.000000	0.012000	-0.016000	-1.014000	192.000000	0.000000	0.000000	0.000000	0.000000	0.000000	0.000000	0.000000	0.000000	0.000000	1749113631.949344	0.000000
152.000000	-92839.512865	57676.351985	50950.890893	0.000000	0.000000	0.000000	0.000000	0.000000	0.012000	-0.016000	-1.014000	192.000000	0.000000	0.000000	0.000000	0.000000	0.000000	0.000000	0.000000	0.000000	0.000000	1749113631.952346	0.000000
153.000000	-89671.398958	57760.551007	51229.773608	0.000000	0.000000	0.000000	0.000000	0.000000	0.012000	-0.016000	-1.014000	192.000000	0.000000	0.000000	0.000000	0.000000	0.000000	0.000000	0.000000	0.000000	0.000000	1749113631.956387	0.000000
154.000000	-86654.449899	57859.591587	51471.328911	0.000000	0.000000	0.000000	0.000000	0.000000	0.012000	-0.016000	-1.014000	192.000000	0.000000	0.000000	0.000000	0.000000	0.000000	0.000000	0.000000	0.000000	0.000000	1749113631.960421	0.000000
155.000000	-88492.836176	57834.378819	51343.208712	0.000000	0.000000	0.000000	0.000000	0.000000	0.014000	-0.014000	-1.016000	192.000000	0.000000	112.000000	255.000000	144.000000	224.000000	64.000000	0.000000	0.000000	0.000000	1749113631.965498	0.000000
156.000000	-92254.120678	57723.178890	51024.294022	0.000000	0.000000	0.000000	0.000000	0.000000	0.014000	-0.014000	-1.016000	192.000000	0.000000	0.000000	0.000000	0.000000	0.000000	0.000000	0.000000	0.000000	0.000000	1749113631.969605	0.000000
157.000000	-92850.085241	57678.095422	50952.433163	0.000000	0.000000	0.000000	0.000000	0.000000	0.014000	-0.014000	-1.016000	192.000000	0.000000	0.000000	0.000000	0.000000	0.000000	0.000000	0.000000	0.000000	0.000000	1749113631.973490	0.000000
158.000000	-89701.618517	57760.461600	51229.036001	0.000000	0.000000	0.000000	0.000000	0.000000	0.014000	-0.014000	-1.016000	192.000000	0.000000	0.000000	0.000000	0.000000	0.000000	0.000000	0.000000	0.000000	0.000000	1749113631.977523	0.000000
159.000000	-86662.295361	57859.792752	51472.513553	0.000000	0.000000	0.000000	0.000000	0.000000	0.014000	-0.014000	-1.016000	192.000000	0.000000	0.000000	0.000000	0.000000	0.000000	0.000000	0.000000	0.000000	0.000000	1749113631.980460	0.000000
160.000000	-88478.128729	57834.289412	51344.661575	0.000000	0.000000	0.000000	0.000000	0.000000	0.014000	-0.014000	-1.016000	192.000000	0.000000	0.000000	0.000000	0.000000	0.000000	0.000000	0.000000	0.000000	0.000000	1749113631.984461	0.000000
161.000000	-92249.560922	57722.016599	51023.981097	0.000000	0.000000	0.000000	0.000000	0.000000	0.014000	-0.014000	-1.016000	192.000000	0.000000	0.000000	0.000000	0.000000	0.000000	0.000000	0.000000	0.000000	0.000000	1749113631.988482	0.000000
162.000000	-92852.923912	57677.134297	50951.829666	0.000000	0.000000	0.000000	0.000000	0.000000	0.014000	-0.014000	-1.016000	192.000000	0.000000	0.000000	0.000000	0.000000	0.000000	0.000000	0.000000	0.000000	0.000000	1749113631.993495	0.000000
163.000000	-89719.857540	57761.847408	51230.131236	0.000000	0.000000	0.000000	0.000000	0.000000	0.014000	-0.014000	-1.016000	192.000000	0.000000	0.000000	0.000000	0.000000	0.000000	0.000000	0.000000	0.000000	0.000000	1749113631.997530	0.000000
164.000000	-86669.582030	57858.786924	51471.239504	0.000000	0.000000	0.000000	0.000000	0.000000	0.016000	-0.012000	-1.012000	192.000000	0.000000	128.000000	255.000000	160.000000	224.000000	96.000000	0.000000	0.000000	0.000000	1749113632.001638	0.000000
165.000000	-88472.719606	57831.204871	51342.135828	0.000000	0.000000	0.000000	0.000000	0.000000	0.016000	-0.012000	-1.012000	192.000000	0.000000	0.000000	0.000000	0.000000	0.000000	0.000000	0.000000	0.000000	0.000000	1749113632.005529	0.000000
166.000000	-92240.486114	57717.076864	51019.488397	0.000000	0.000000	0.000000	0.000000	0.000000	0.016000	-0.012000	-1.012000	192.000000	0.000000	0.000000	0.000000	0.000000	0.000000	0.000000	0.000000	0.000000	0.000000	1749113632.008508	0.000000
167.000000	-92849.861723	57672.261616	50946.532303	0.000000	0.000000	0.000000	0.000000	0.000000	0.016000	-0.012000	-1.012000	192.000000	0.000000	0.000000	0.000000	0.000000	0.000000	0.000000	0.000000	0.000000	0.000000	1749113632.012541	0.000000
168.000000	-89715.677764	57758.002908	51225.929108	0.000000	0.000000	0.000000	0.000000	0.000000	0.016000	-0.012000	-1.012000	192.000000	0.000000	0.000000	0.000000	0.000000	0.000000	0.000000	0.000000	0.000000	0.000000	1749113632.016523	0.000000
169.000000	-86668.509146	57857.445819	51469.786640	0.000000	0.000000	0.000000	0.000000	0.000000	0.016000	-0.012000	-1.012000	192.000000	0.000000	0.000000	0.000000	0.000000	0.000000	0.000000	0.000000	0.000000	0.000000	1749113632.020586	0.000000
170.000000	-88462.571915	57834.557633	51346.069735	0.000000	0.000000	0.000000	0.000000	0.000000	0.016000	-0.012000	-1.012000	192.000000	0.000000	0.000000	0.000000	0.000000	0.000000	0.000000	0.000000	0.000000	0.000000	1749113632.025601	0.000000
171.000000	-92233.735887	57722.083655	51025.366905	0.000000	0.000000	0.000000	0.000000	0.000000	0.016000	-0.012000	-1.012000	192.000000	0.000000	0.000000	0.000000	0.000000	0.000000	0.000000	0.000000	0.000000	0.000000	1749113632.029629	0.000000
172.000000	-92858.176572	57675.904951	50950.108582	0.000000	0.000000	0.000000	0.000000	0.000000	0.016000	-0.012000	-1.012000	192.000000	0.000000	0.000000	0.000000	0.000000	0.000000	0.000000	0.000000	0.000000	0.000000	1749113632.033579	0.000000
173.000000	-89744.444459	57759.723992	51226.800826	0.000000	0.000000	0.000000	0.000000	0.000000	0.016000	-0.012000	-1.012000	192.000000	0.000000	0.000000	0.000000	0.000000	0.000000	0.000000	0.000000	0.000000	0.000000	1749113632.036651	0.000000
174.000000	-86672.957143	57859.636290	51472.491201	0.000000	0.000000	0.000000	0.000000	0.000000	0.012000	-0.010000	-1.016000	192.000000	0.000000	96.000000	255.000000	176.000000	224.000000	64.000000	0.000000	0.000000	0.000000	1749113632.040594	0.000000
175.000000	-88447.506839	57834.781150	51347.589653	0.000000	0.000000	0.000000	0.000000	0.000000	0.012000	-0.010000	-1.016000	192.000000	0.000000	0.000000	0.000000	0.000000	0.000000	0.000000	0.000000	0.000000	0.000000	1749113632.044565	0.000000
176.000000	-92222.001221	57719.446149	51023.869338	0.000000	0.000000	0.000000	0.000000	0.000000	0.012000	-0.010000	-1.016000	192.000000	0.000000	0.000000	0.000000	0.000000	0.000000	0.000000	0.000000	0.000000	0.000000	1749113632.048553	0.000000
177.000000	-92859.361215	57672.731003	50947.359317	0.000000	0.000000	0.000000	0.000000	0.000000	0.012000	-0.010000	-1.016000	192.000000	0.000000	0.000000	0.000000	0.000000	0.000000	0.000000	0.000000	0.000000	0.000000	1749113632.053594	0.000000
178.000000	-89763.085814	57756.371231	51223.202196	0.000000	0.000000	0.000000	0.000000	0.000000	0.012000	-0.010000	-1.016000	192.000000	0.000000	0.000000	0.000000	0.000000	0.000000	0.000000	0.000000	0.000000	0.000000	1749113632.057825	0.000000
179.000000	-86674.745283	57854.182464	51467.149135	0.000000	0.000000	0.000000	0.000000	0.000000	0.012000	-0.010000	-1.016000	192.000000	0.000000	0.000000	0.000000	0.000000	0.000000	0.000000	0.000000	0.000000	0.000000	1749113632.061777	0.000000
180.000000	-88433.939330	57831.920127	51345.957976	0.000000	0.000000	0.000000	0.000000	0.000000	0.012000	-0.010000	-1.016000	192.000000	0.000000	0.000000	0.000000	0.000000	0.000000	0.000000	0.000000	0.000000	0.000000	1749113632.064704	0.000000
181.000000	-92216.793265	57718.194451	51023.265841	0.000000	0.000000	0.000000	0.000000	0.000000	0.012000	-0.010000	-1.016000	192.000000	0.000000	0.000000	0.000000	0.000000	0.000000	0.000000	0.000000	0.000000	0.000000	1749113632.068628	0.000000
182.000000	-92861.931665	57671.769878	50946.129971	0.000000	0.000000	0.000000	0.000000	0.000000	0.012000	-0.010000	-1.016000	192.000000	0.000000	0.000000	0.000000	0.000000	0.000000	0.000000	0.000000	0.000000	0.000000	1749113632.072696	0.000000
183.000000	-89767.444404	57754.359574	51221.324649	0.000000	0.000000	0.000000	0.000000	0.000000	0.012000	-0.010000	-1.016000	192.000000	0.000000	0.000000	0.000000	0.000000	0.000000	0.000000	0.000000	0.000000	0.000000	1749113632.076675	0.000000
184.000000	-86672.152480	57854.026002	51467.618521	0.000000	0.000000	0.000000	0.000000	0.000000	0.012000	-0.016000	-1.014000	192.000000	0.000000	96.000000	255.000000	128.000000	224.000000	80.000000	0.000000	0.000000	0.000000	1749113632.080679	0.000000
185.000000	-88419.813027	57830.288450	51345.488589	0.000000	0.000000	0.000000	0.000000	0.000000	0.012000	-0.016000	-1.014000	192.000000	0.000000	0.000000	0.000000	0.000000	0.000000	0.000000	0.000000	0.000000	0.000000	1749113632.085648	0.000000
186.000000	-92206.891442	57716.786291	51023.154083	0.000000	0.000000	0.000000	0.000000	0.000000	0.012000	-0.016000	-1.014000	192.000000	0.000000	0.000000	0.000000	0.000000	0.000000	0.000000	0.000000	0.000000	0.000000	1749113632.089743	0.000000
187.000000	-92870.358273	57668.506523	50942.620747	0.000000	0.000000	0.000000	0.000000	0.000000	0.012000	-0.016000	-1.014000	192.000000	0.000000	0.000000	0.000000	0.000000	0.000000	0.000000	0.000000	0.000000	0.000000	1749113632.092869	0.000000
188.000000	-89792.746579	57751.409143	51217.435445	0.000000	0.000000	0.000000	0.000000	0.000000	0.012000	-0.016000	-1.014000	192.000000	0.000000	0.000000	0.000000	0.000000	0.000000	0.000000	0.000000	0.000000	0.000000	1749113632.096726	0.000000
189.000000	-86673.404178	57854.383630	51468.110260	0.000000	0.000000	0.000000	0.000000	0.000000	0.012000	-0.016000	-1.014000	192.000000	0.000000	0.000000	0.000000	0.000000	0.000000	0.000000	0.000000	0.000000	0.000000	1749113632.100760	0.000000
190.000000	-88404.278565	57831.629554	51347.567302	0.000000	0.000000	0.000000	0.000000	0.000000	0.012000	-0.016000	-1.014000	192.000000	0.000000	0.000000	0.000000	0.000000	0.000000	0.000000	0.000000	0.000000	0.000000	1749113632.104773	0.000000
191.000000	-92195.894384	57715.489890	51022.304716	0.000000	0.000000	0.000000	0.000000	0.000000	0.012000	-0.016000	-1.014000	192.000000	0.000000	0.000000	0.000000	0.000000	0.000000	0.000000	0.000000	0.000000	0.000000	1749113632.108765	0.000000
192.000000	-92867.385491	57667.232474	50941.413753	0.000000	0.000000	0.000000	0.000000	0.000000	0.012000	-0.016000	-1.014000	192.000000	0.000000	0.000000	0.000000	0.000000	0.000000	0.000000	0.000000	0.000000	0.000000	1749113632.113696	0.000000
193.000000	-89797.216928	57748.168140	51213.523890	0.000000	0.000000	0.000000	0.000000	0.000000	0.012000	-0.016000	-1.014000	192.000000	0.000000	0.000000	0.000000	0.000000	0.000000	0.000000	0.000000	0.000000	0.000000	1749113632.117755	0.000000
194.000000	-86676.309905	57846.359354	51459.706004	0.000000	0.000000	0.000000	0.000000	0.000000	0.012000	-0.016000	-1.010000	192.000000	0.000000	96.000000	255.000000	128.000000	224.000000	112.000000	0.000000	0.000000	0.000000	1749113632.120780	0.000000
195.000000	-88382.418559	57828.634420	51345.130962	0.000000	0.000000	0.000000	0.000000	0.000000	0.012000	-0.016000	-1.010000	192.000000	0.000000	0.000000	0.000000	0.000000	0.000000	0.000000	0.000000	0.000000	0.000000	1749113632.124848	0.000000
196.000000	-92182.215116	57717.456844	51024.741057	0.000000	0.000000	0.000000	0.000000	0.000000	0.012000	-0.016000	-1.010000	192.000000	0.000000	0.000000	0.000000	0.000000	0.000000	0.000000	0.000000	0.000000	0.000000	1749113632.128966	0.000000
197.000000	-92866.334959	57671.166381	50945.079439	0.000000	0.000000	0.000000	0.000000	0.000000	0.012000	-0.016000	-1.010000	192.000000	0.000000	0.000000	0.000000	0.000000	0.000000	0.000000	0.000000	0.000000	0.000000	1749113632.132866	0.000000
198.000000	-89801.754332	57749.732763	51214.999105	0.000000	0.000000	0.000000	0.000000	0.000000	0.012000	-0.016000	-1.010000	192.000000	0.000000	0.000000	0.000000	0.000000	0.000000	0.000000	0.000000	0.000000	0.000000	1749113632.136791	0.000000
199.000000	-86675.773463	57848.192197	51461.494143	0.000000	0.000000	0.000000	0.000000	0.000000	0.012000	-0.016000	-1.010000	192.000000	0.000000	0.000000	0.000000	0.000000	0.000000	0.000000	0.000000	0.000000	0.000000	1749113632.141823	0.000000
200.000000	-88375.601277	57827.405075	51344.393354	0.000000	0.000000	0.000000	0.000000	0.000000	0.012000	-0.016000	-1.010000	192.000000	0.000000	0.000000	0.000000	0.000000	0.000000	0.000000	0.000000	0.000000	0.000000	1749113632.145822	0.000000
201.000000	-92176.738939	57712.137128	51020.404818	0.000000	0.000000	0.000000	0.000000	0.000000	0.012000	-0.016000	-1.010000	192.000000	0.000000	0.000000	0.000000	0.000000	0.000000	0.000000	0.000000	0.000000	0.000000	1749113632.148821	0.000000
202.000000	-92877.063796	57664.885541	50938.575082	0.000000	0.000000	0.000000	0.000000	0.000000	0.012000	-0.016000	-1.010000	192.000000	0.000000	0.000000	0.000000	0.000000	0.000000	0.000000	0.000000	0.000000	0.000000	1749113632.152792	0.000000
203.000000	-89832.935015	57748.682231	51212.875690	0.000000	0.000000	0.000000	0.000000	0.000000	0.012000	-0.016000	-1.010000	192.000000	0.000000	0.000000	0.000000	0.000000	0.000000	0.000000	0.000000	0.000000	0.000000	1749113632.156939	0.000000
204.000000	-86685.183547	57849.198025	51462.947007	0.000000	0.000000	0.000000	0.000000	0.000000	0.008000	-0.020000	-1.010000	192.000000	0.000000	64.000000	255.000000	96.000000	224.000000	112.000000	0.000000	0.000000	0.000000	1749113632.160900	0.000000
205.000000	-88367.062910	57830.288450	51348.662537	0.000000	0.000000	0.000000	0.000000	0.000000	0.008000	-0.020000	-1.010000	192.000000	0.000000	0.000000	0.000000	0.000000	0.000000	0.000000	0.000000	0.000000	0.000000	1749113632.164914	0.000000
206.000000	-92169.608732	57719.312038	51028.339687	0.000000	0.000000	0.000000	0.000000	0.000000	0.008000	-0.020000	-1.010000	192.000000	0.000000	0.000000	0.000000	0.000000	0.000000	0.000000	0.000000	0.000000	0.000000	1749113632.168815	0.000000
207.000000	-92876.728520	57670.249959	50944.565349	0.000000	0.000000	0.000000	0.000000	0.000000	0.008000	-0.020000	-1.010000	192.000000	0.000000	0.000000	0.000000	0.000000	0.000000	0.000000	0.000000	0.000000	0.000000	1749113632.173914	0.000000
208.000000	-89847.217780	57751.096219	51215.267326	0.000000	0.000000	0.000000	0.000000	0.000000	0.008000	-0.020000	-1.010000	192.000000	0.000000	0.000000	0.000000	0.000000	0.000000	0.000000	0.000000	0.000000	0.000000	1749113632.176894	0.000000
209.000000	-86689.363323	57852.886063	51467.082079	0.000000	0.000000	0.000000	0.000000	0.000000	0.008000	-0.020000	-1.010000	192.000000	0.000000	0.000000	0.000000	0.000000	0.000000	0.000000	0.000000	0.000000	0.000000	1749113632.180918	0.000000
210.000000	-88349.986178	57831.964830	51351.881188	0.000000	0.000000	0.000000	0.000000	0.000000	0.008000	-0.020000	-1.010000	192.000000	0.000000	0.000000	0.000000	0.000000	0.000000	0.000000	0.000000	0.000000	0.000000	1749113632.184942	0.000000
211.000000	-92161.427994	57716.629829	51026.640955	0.000000	0.000000	0.000000	0.000000	0.000000	0.008000	-0.020000	-1.010000	192.000000	0.000000	0.000000	0.000000	0.000000	0.000000	0.000000	0.000000	0.000000	0.000000	1749113632.189046	0.000000
212.000000	-92881.087110	57667.433639	50941.145532	0.000000	0.000000	0.000000	0.000000	0.000000	0.008000	-0.020000	-1.010000	192.000000	0.000000	0.000000	0.000000	0.000000	0.000000	0.000000	0.000000	0.000000	0.000000	1749113632.193064	0.000000
213.000000	-89856.918437	57746.759981	51210.662867	0.000000	0.000000	0.000000	0.000000	0.000000	0.008000	-0.020000	-1.010000	192.000000	0.000000	0.000000	0.000000	0.000000	0.000000	0.000000	0.000000	0.000000	0.000000	1749113632.197938	0.000000
214.000000	-86696.828806	57847.409886	51461.404736	0.000000	0.000000	0.000000	0.000000	0.000000	0.012000	-0.018000	-1.008000	192.000000	0.000000	96.000000	255.000000	112.000000	224.000000	128.000000	0.000000	0.000000	0.000000	1749113632.201934	0.000000
215.000000	-88339.838486	57828.455607	51348.662537	0.000000	0.000000	0.000000	0.000000	0.000000	0.012000	-0.018000	-1.008000	192.000000	0.000000	0.000000	0.000000	0.000000	0.000000	0.000000	0.000000	0.000000	0.000000	1749113632.204909	0.000000
216.000000	-92149.670976	57715.981628	51026.775065	0.000000	0.000000	0.000000	0.000000	0.000000	0.012000	-0.018000	-1.008000	192.000000	0.000000	0.000000	0.000000	0.000000	0.000000	0.000000	0.000000	0.000000	0.000000	1749113632.208915	0.000000
217.000000	-92883.925782	57667.612453	50941.145532	0.000000	0.000000	0.000000	0.000000	0.000000	0.012000	-0.018000	-1.008000	192.000000	0.000000	0.000000	0.000000	0.000000	0.000000	0.000000	0.000000	0.000000	0.000000	1749113632.212971	0.000000
218.000000	-89868.407234	57746.312946	51209.120597	0.000000	0.000000	0.000000	0.000000	0.000000	0.012000	-0.018000	-1.008000	192.000000	0.000000	0.000000	0.000000	0.000000	0.000000	0.000000	0.000000	0.000000	0.000000	1749113632.217016	0.000000
219.000000	-86695.040666	57848.415714	51462.634082	0.000000	0.000000	0.000000	0.000000	0.000000	0.012000	-0.018000	-1.008000	192.000000	0.000000	0.000000	0.000000	0.000000	0.000000	0.000000	0.000000	0.000000	0.000000	1749113632.221186	0.000000
220.000000	-88335.748116	57830.511967	51351.434153	0.000000	0.000000	0.000000	0.000000	0.000000	0.012000	-0.018000	-1.008000	192.000000	0.000000	0.000000	0.000000	0.000000	0.000000	0.000000	0.000000	0.000000	0.000000	1749113632.225055	0.000000
221.000000	-92145.491200	57715.959277	51026.976231	0.000000	0.000000	0.000000	0.000000	0.000000	0.012000	-0.018000	-1.008000	192.000000	0.000000	0.000000	0.000000	0.000000	0.000000	0.000000	0.000000	0.000000	0.000000	1749113632.230055	0.000000
222.000000	-92881.802366	57663.723250	50937.703364	0.000000	0.000000	0.000000	0.000000	0.000000	0.012000	-0.018000	-1.008000	192.000000	0.000000	0.000000	0.000000	0.000000	0.000000	0.000000	0.000000	0.000000	0.000000	1749113632.233139	0.000000
223.000000	-89876.789138	57745.262414	51207.891251	0.000000	0.000000	0.000000	0.000000	0.000000	0.008000	-0.018000	-1.014000	192.000000	0.000000	64.000000	255.000000	112.000000	224.000000	80.000000	0.000000	0.000000	0.000000	1749113632.236982	0.000000
224.000000	-86699.756885	57847.901624	51461.762364	0.000000	0.000000	0.000000	0.000000	0.000000	0.008000	-0.018000	-1.014000	192.000000	0.000000	0.000000	0.000000	0.000000	0.000000	0.000000	0.000000	0.000000	0.000000	1749113632.241081	0.000000
225.000000	-88312.234081	57829.908470	51351.612967	0.000000	0.000000	0.000000	0.000000	0.000000	0.008000	-0.018000	-1.014000	192.000000	0.000000	0.000000	0.000000	0.000000	0.000000	0.000000	0.000000	0.000000	0.000000	1749113632.245115	0.000000
226.000000	-92133.242444	57715.199317	51026.976231	0.000000	0.000000	0.000000	0.000000	0.000000	0.008000	-0.018000	-1.014000	192.000000	0.000000	0.000000	0.000000	0.000000	0.000000	0.000000	0.000000	0.000000	0.000000	1749113632.249244	0.000000
227.000000	-92885.736273	57663.656195	50937.032811	0.000000	0.000000	0.000000	0.000000	0.000000	0.008000	-0.018000	-1.014000	192.000000	0.000000	0.000000	0.000000	0.000000	0.000000	0.000000	0.000000	0.000000	0.000000	1749113632.253168	0.000000
228.000000	-89888.479100	57745.262414	51207.690085	0.000000	0.000000	0.000000	0.000000	0.000000	0.008000	-0.018000	-1.014000	192.000000	0.000000	0.000000	0.000000	0.000000	0.000000	0.000000	0.000000	0.000000	0.000000	1749113632.258106	0.000000
229.000000	-86703.802550	57846.471113	51460.555370	0.000000	0.000000	0.000000	0.000000	0.000000	0.008000	-0.018000	-1.014000	192.000000	0.000000	0.000000	0.000000	0.000000	0.000000	0.000000	0.000000	0.000000	0.000000	1749113632.261065	0.000000
230.000000	-88302.667535	57827.516833	51350.473028	0.000000	0.000000	0.000000	0.000000	0.000000	0.008000	-0.018000	-1.014000	192.000000	0.000000	0.000000	0.000000	0.000000	0.000000	0.000000	0.000000	0.000000	0.000000	1749113632.264054	0.000000
231.000000	-92120.725467	57714.551117	51028.004411	0.000000	0.000000	0.000000	0.000000	0.000000	0.008000	-0.018000	-1.014000	192.000000	0.000000	0.000000	0.000000	0.000000	0.000000	0.000000	0.000000	0.000000	0.000000	1749113632.269042	0.000000
232.000000	-92891.279506	57663.633843	50937.301032	0.000000	0.000000	0.000000	0.000000	0.000000	0.008000	-0.018000	-1.014000	192.000000	0.000000	0.000000	0.000000	0.000000	0.000000	0.000000	0.000000	0.000000	0.000000	1749113632.273066	0.000000
233.000000	-89917.245795	57741.194396	51202.884460	0.000000	0.000000	0.000000	0.000000	0.000000	0.008000	-0.020000	-1.012000	192.000000	0.000000	64.000000	255.000000	96.000000	224.000000	96.000000	0.000000	0.000000	0.000000	1749113632.277071	0.000000
234.000000	-86699.332201	57844.593566	51459.393079	0.000000	0.000000	0.000000	0.000000	0.000000	0.008000	-0.020000	-1.012000	192.000000	0.000000	0.000000	0.000000	0.000000	0.000000	0.000000	0.000000	0.000000	0.000000	1749113632.281229	0.000000
235.000000	-88290.865814	57826.488653	51350.651842	0.000000	0.000000	0.000000	0.000000	0.000000	0.008000	-0.020000	-1.012000	192.000000	0.000000	0.000000	0.000000	0.000000	0.000000	0.000000	0.000000	0.000000	0.000000	1749113632.285308	0.000000
236.000000	-92116.031601	57711.846556	51025.858644	0.000000	0.000000	0.000000	0.000000	0.000000	0.008000	-0.020000	-1.012000	192.000000	0.000000	0.000000	0.000000	0.000000	0.000000	0.000000	0.000000	0.000000	0.000000	1749113632.289217	0.000000
237.000000	-92893.447625	57659.342308	50933.255366	0.000000	0.000000	0.000000	0.000000	0.000000	0.008000	-0.020000	-1.012000	192.000000	0.000000	0.000000	0.000000	0.000000	0.000000	0.000000	0.000000	0.000000	0.000000	1749113632.292147	0.000000
238.000000	-89924.130133	57737.416951	51198.771739	0.000000	0.000000	0.000000	0.000000	0.000000	0.008000	-0.020000	-1.012000	192.000000	0.000000	0.000000	0.000000	0.000000	0.000000	0.000000	0.000000	0.000000	0.000000	1749113632.297161	0.000000
239.000000	-86702.036762	57838.469188	51453.067536	0.000000	0.000000	0.000000	0.000000	0.000000	0.008000	-0.020000	-1.012000	192.000000	0.000000	0.000000	0.000000	0.000000	0.000000	0.000000	0.000000	0.000000	0.000000	1749113632.301122	0.000000
240.000000	-88269.095214	57823.985258	51348.751944	0.000000	0.000000	0.000000	0.000000	0.000000	0.008000	-0.020000	-1.012000	192.000000	0.000000	0.000000	0.000000	0.000000	0.000000	0.000000	0.000000	0.000000	0.000000	1749113632.305112	0.000000
241.000000	-92104.408694	57709.857250	51024.338725	0.000000	0.000000	0.000000	0.000000	0.000000	0.008000	-0.020000	-1.012000	192.000000	0.000000	0.000000	0.000000	0.000000	0.000000	0.000000	0.000000	0.000000	0.000000	1749113632.309136	0.000000
242.000000	-92892.307686	57659.252901	50932.696573	0.000000	0.000000	0.000000	0.000000	0.000000	0.008000	-0.020000	-1.012000	192.000000	0.000000	0.000000	0.000000	0.000000	0.000000	0.000000	0.000000	0.000000	0.000000	1749113632.313245	0.000000
243.000000	-89922.274938	57739.339201	51200.314009	0.000000	0.000000	0.000000	0.000000	0.000000	0.014000	-0.018000	-1.014000	192.000000	0.000000	112.000000	255.000000	112.000000	224.000000	80.000000	0.000000	0.000000	0.000000	1749113632.317326	0.000000
244.000000	-86701.969707	57839.810293	51454.341585	0.000000	0.000000	0.000000	0.000000	0.000000	0.014000	-0.018000	-1.014000	192.000000	0.000000	0.000000	0.000000	0.000000	0.000000	0.000000	0.000000	0.000000	0.000000	1749113632.320153	0.000000
245.000000	-88252.912552	57822.711208	51348.394316	0.000000	0.000000	0.000000	0.000000	0.000000	0.014000	-0.018000	-1.014000	192.000000	0.000000	0.000000	0.000000	0.000000	0.000000	0.000000	0.000000	0.000000	0.000000	1749113632.325228	0.000000
246.000000	-92082.615743	57711.176003	51027.155045	0.000000	0.000000	0.000000	0.000000	0.000000	0.014000	-0.018000	-1.014000	192.000000	0.000000	0.000000	0.000000	0.000000	0.000000	0.000000	0.000000	0.000000	0.000000	1749113632.329233	0.000000
247.000000	-92893.380570	57658.738811	50932.383648	0.000000	0.000000	0.000000	0.000000	0.000000	0.014000	-0.018000	-1.014000	192.000000	0.000000	0.000000	0.000000	0.000000	0.000000	0.000000	0.000000	0.000000	0.000000	1749113632.333250	0.000000
248.000000	-89937.518828	57735.360591	51195.508384	0.000000	0.000000	0.000000	0.000000	0.000000	0.014000	-0.018000	-1.014000	192.000000	0.000000	0.000000	0.000000	0.000000	0.000000	0.000000	0.000000	0.000000	0.000000	1749113632.337222	0.000000
249.000000	-86707.647050	57837.619822	51452.173466	0.000000	0.000000	0.000000	0.000000	0.000000	0.014000	-0.018000	-1.014000	192.000000	0.000000	0.000000	0.000000	0.000000	0.000000	0.000000	0.000000	0.000000	0.000000	1749113632.341266	0.000000
250.000000	-88247.726947	57821.235993	51347.410839	0.000000	0.000000	0.000000	0.000000	0.000000	0.014000	-0.018000	-1.014000	192.000000	0.000000	0.000000	0.000000	0.000000	0.000000	0.000000	0.000000	0.000000	0.000000	1749113632.345375	0.000000
251.000000	-92082.459281	57709.276105	51025.456312	0.000000	0.000000	0.000000	0.000000	0.000000	0.014000	-0.018000	-1.014000	192.000000	0.000000	0.000000	0.000000	0.000000	0.000000	0.000000	0.000000	0.000000	0.000000	1749113632.348381	0.000000
252.000000	-92898.297953	57656.794209	50930.193177	0.000000	0.000000	0.000000	0.000000	0.000000	0.014000	-0.018000	-1.014000	192.000000	0.000000	0.000000	0.000000	0.000000	0.000000	0.000000	0.000000	0.000000	0.000000	1749113632.352281	0.000000
253.000000	-89967.827793	57733.125416	51192.312085	0.000000	0.000000	0.000000	0.000000	0.000000	0.012000	-0.014000	-1.010000	192.000000	0.000000	96.000000	255.000000	144.000000	224.000000	112.000000	0.000000	0.000000	0.000000	1749113632.357196	0.000000
254.000000	-86708.496417	57835.652868	51450.318271	0.000000	0.000000	0.000000	0.000000	0.000000	0.012000	-0.014000	-1.010000	192.000000	0.000000	0.000000	0.000000	0.000000	0.000000	0.000000	0.000000	0.000000	0.000000	1749113632.361285	0.000000
255.000000	-88213.774647	57820.476034	51348.416668	0.000000	0.000000	0.000000	0.000000	0.000000	0.012000	-0.014000	-1.010000	192.000000	0.000000	0.000000	0.000000	0.000000	0.000000	0.000000	0.000000	0.000000	0.000000	1749113632.365302	0.000000
0.000000	-92064.399071	57707.577373	51024.741057	0.000000	0.000000	0.000000	0.000000	0.000000	0.012000	-0.014000	-1.010000	192.000000	0.000000	0.000000	0.000000	0.000000	0.000000	0.000000	0.000000	0.000000	0.000000	1749113632.369319	0.000000
1.000000	-92899.460244	57655.475456	50928.561500	0.000000	0.000000	0.000000	0.000000	0.000000	0.012000	-0.014000	-1.010000	192.000000	0.000000	0.000000	0.000000	0.000000	0.000000	0.000000	0.000000	0.000000	0.000000	1749113632.373300	0.000000
2.000000	-89965.704377	57734.645335	51194.390797	0.000000	0.000000	0.000000	0.000000	0.000000	0.012000	-0.014000	-1.010000	192.000000	0.000000	0.000000	0.000000	0.000000	0.000000	0.000000	0.000000	0.000000	0.000000	1749113632.376512	0.000000
3.000000	-86714.397277	57837.128083	51452.173466	0.000000	0.000000	0.000000	0.000000	0.000000	0.012000	-0.014000	-1.010000	192.000000	0.000000	0.000000	0.000000	0.000000	0.000000	0.000000	0.000000	0.000000	0.000000	1749113632.380490	0.000000
4.000000	-88223.654118	57822.197118	51350.383621	0.000000	0.000000	0.000000	0.000000	0.000000	0.012000	-0.014000	-1.010000	192.000000	0.000000	0.000000	0.000000	0.000000	0.000000	0.000000	0.000000	0.000000	0.000000	1749113632.385305	0.000000
5.000000	-92063.281484	57708.247925	51026.417437	0.000000	0.000000	0.000000	0.000000	0.000000	0.012000	-0.014000	-1.010000	192.000000	0.000000	0.000000	0.000000	0.000000	0.000000	0.000000	0.000000	0.000000	0.000000	1749113632.389336	0.000000
6.000000	-92900.935459	57655.274290	50928.807369	0.000000	0.000000	0.000000	0.000000	0.000000	0.012000	-0.014000	-1.010000	192.000000	0.000000	0.000000	0.000000	0.000000	0.000000	0.000000	0.000000	0.000000	0.000000	1749113632.393323	0.000000
7.000000	-89980.702398	57733.617155	51192.692064	0.000000	0.000000	0.000000	0.000000	0.000000	0.010000	-0.014000	-1.014000	192.000000	0.000000	80.000000	255.000000	144.000000	224.000000	80.000000	0.000000	0.000000	0.000000	1749113632.397325	0.000000
8.000000	-86712.117399	57837.195139	51452.553445	0.000000	0.000000	0.000000	0.000000	0.000000	0.010000	-0.014000	-1.014000	192.000000	0.000000	0.000000	0.000000	0.000000	0.000000	0.000000	0.000000	0.000000	0.000000	1749113632.400328	0.000000
9.000000	-88210.019554	57819.984295	51348.841351	0.000000	0.000000	0.000000	0.000000	0.000000	0.010000	-0.014000	-1.014000	192.000000	0.000000	0.000000	0.000000	0.000000	0.000000	0.000000	0.000000	0.000000	0.000000	1749113632.404356	0.000000
10.000000	-92055.748946	57706.951524	51025.433961	0.000000	0.000000	0.000000	0.000000	0.000000	0.010000	-0.014000	-1.014000	192.000000	0.000000	0.000000	0.000000	0.000000	0.000000	0.000000	0.000000	0.000000	0.000000	1749113632.408311	0.000000
11.000000	-92903.215337	57652.569729	50926.013401	0.000000	0.000000	0.000000	0.000000	0.000000	0.010000	-0.014000	-1.014000	192.000000	0.000000	0.000000	0.000000	0.000000	0.000000	0.000000	0.000000	0.000000	0.000000	1749113632.413593	0.000000
12.000000	-90002.003610	57730.376152	51188.355826	0.000000	0.000000	0.000000	0.000000	0.000000	0.010000	-0.014000	-1.014000	192.000000	0.000000	0.000000	0.000000	0.000000	0.000000	0.000000	0.000000	0.000000	0.000000	1749113632.417382	0.000000
13.000000	-86720.901635	57834.602336	51449.558312	0.000000	0.000000	0.000000	0.000000	0.000000	0.010000	-0.014000	-1.014000	192.000000	0.000000	0.000000	0.000000	0.000000	0.000000	0.000000	0.000000	0.000000	0.000000	1749113632.421435	0.000000
14.000000	-88178.280077	57820.967772	51351.590616	0.000000	0.000000	0.000000	0.000000	0.000000	0.010000	-0.014000	-1.014000	192.000000	0.000000	0.000000	0.000000	0.000000	0.000000	0.000000	0.000000	0.000000	0.000000	1749113632.424408	0.000000
15.000000	-92030.379716	57708.829070	51028.764371	0.000000	0.000000	0.000000	0.000000	0.000000	0.010000	-0.014000	-1.014000	192.000000	0.000000	0.000000	0.000000	0.000000	0.000000	0.000000	0.000000	0.000000	0.000000	1749113632.428441	0.000000
16.000000	-92902.075398	57652.815599	50926.013401	0.000000	0.000000	0.000000	0.000000	0.000000	0.012000	-0.016000	-1.014000	192.000000	0.000000	96.000000	255.000000	128.000000	224.000000	80.000000	0.000000	0.000000	0.000000	1749113632.432370	0.000000
17.000000	-90006.429256	57731.136111	51189.138137	0.000000	0.000000	0.000000	0.000000	0.000000	0.012000	-0.016000	-1.014000	192.000000	0.000000	0.000000	0.000000	0.000000	0.000000	0.000000	0.000000	0.000000	0.000000	1749113632.436469	0.000000
18.000000	-86727.070716	57834.825854	51449.893588	0.000000	0.000000	0.000000	0.000000	0.000000	0.012000	-0.016000	-1.014000	192.000000	0.000000	0.000000	0.000000	0.000000	0.000000	0.000000	0.000000	0.000000	0.000000	1749113632.440465	0.000000
19.000000	-88189.187728	57819.693723	51350.651842	0.000000	0.000000	0.000000	0.000000	0.000000	0.012000	-0.016000	-1.014000	192.000000	0.000000	0.000000	0.000000	0.000000	0.000000	0.000000	0.000000	0.000000	0.000000	1749113632.445704	0.000000
20.000000	-92032.994870	57708.382035	51028.876129	0.000000	0.000000	0.000000	0.000000	0.000000	0.012000	-0.016000	-1.014000	192.000000	0.000000	0.000000	0.000000	0.000000	0.000000	0.000000	0.000000	0.000000	0.000000	1749113632.449471	0.000000
21.000000	-92910.770227	57653.128523	50926.348677	0.000000	0.000000	0.000000	0.000000	0.000000	0.012000	-0.016000	-1.014000	192.000000	0.000000	0.000000	0.000000	0.000000	0.000000	0.000000	0.000000	0.000000	0.000000	1749113632.453452	0.000000
22.000000	-90033.541922	57727.805701	51185.025416	0.000000	0.000000	0.000000	0.000000	0.000000	0.012000	-0.016000	-1.014000	192.000000	0.000000	0.000000	0.000000	0.000000	0.000000	0.000000	0.000000	0.000000	0.000000	1749113632.456514	0.000000
23.000000	-86722.935644	57830.579022	51445.959681	0.000000	0.000000	0.000000	0.000000	0.000000	0.012000	-0.016000	-1.014000	192.000000	0.000000	0.000000	0.000000	0.000000	0.000000	0.000000	0.000000	0.000000	0.000000	1749113632.460510	0.000000
24.000000	-88166.187783	57815.446891	51347.567302	0.000000	0.000000	0.000000	0.000000	0.000000	0.012000	-0.016000	-1.014000	192.000000	0.000000	0.000000	0.000000	0.000000	0.000000	0.000000	0.000000	0.000000	0.000000	1749113632.464494	0.000000
25.000000	-92021.193149	57703.039968	51024.629298	0.000000	0.000000	0.000000	0.000000	0.000000	0.012000	-0.016000	-1.014000	192.000000	0.000000	0.000000	0.000000	0.000000	0.000000	0.000000	0.000000	0.000000	0.000000	1749113632.468445	0.000000
26.000000	-92910.703172	57649.373430	50922.995916	0.000000	0.000000	0.000000	0.000000	0.000000	0.008000	-0.012000	-1.012000	192.000000	0.000000	64.000000	255.000000	160.000000	224.000000	96.000000	0.000000	0.000000	0.000000	1749113632.473584	0.000000
27.000000	-90051.646835	57724.184719	51181.069157	0.000000	0.000000	0.000000	0.000000	0.000000	0.008000	-0.012000	-1.012000	192.000000	0.000000	0.000000	0.000000	0.000000	0.000000	0.000000	0.000000	0.000000	0.000000	1749113632.477632	0.000000
28.000000	-86737.419574	57827.360371	51442.741030	0.000000	0.000000	0.000000	0.000000	0.000000	0.008000	-0.012000	-1.012000	192.000000	0.000000	0.000000	0.000000	0.000000	0.000000	0.000000	0.000000	0.000000	0.000000	1749113632.480568	0.000000
29.000000	-88147.077042	57815.245726	51348.684889	0.000000	0.000000	0.000000	0.000000	0.000000	0.008000	-0.012000	-1.012000	192.000000	0.000000	0.000000	0.000000	0.000000	0.000000	0.000000	0.000000	0.000000	0.000000	1749113632.484499	0.000000
30.000000	-92006.284536	57702.056492	51024.584594	0.000000	0.000000	0.000000	0.000000	0.000000	0.008000	-0.012000	-1.012000	192.000000	0.000000	0.000000	0.000000	0.000000	0.000000	0.000000	0.000000	0.000000	0.000000	1749113632.488524	0.000000
31.000000	-92910.658468	57647.898215	50921.073666	0.000000	0.000000	0.000000	0.000000	0.000000	0.008000	-0.012000	-1.012000	192.000000	0.000000	0.000000	0.000000	0.000000	0.000000	0.000000	0.000000	0.000000	0.000000	1749113632.492577	0.000000
32.000000	-90051.132745	57724.631754	51181.158564	0.000000	0.000000	0.000000	0.000000	0.000000	0.008000	-0.012000	-1.012000	192.000000	0.000000	0.000000	0.000000	0.000000	0.000000	0.000000	0.000000	0.000000	0.000000	1749113632.496559	0.000000
33.000000	-86735.698490	57827.717999	51442.964547	0.000000	0.000000	0.000000	0.000000	0.000000	0.008000	-0.012000	-1.012000	192.000000	0.000000	0.000000	0.000000	0.000000	0.000000	0.000000	0.000000	0.000000	0.000000	1749113632.501496	0.000000
34.000000	-88147.367614	57814.910449	51348.528427	0.000000	0.000000	0.000000	0.000000	0.000000	0.008000	-0.012000	-1.012000	192.000000	0.000000	0.000000	0.000000	0.000000	0.000000	0.000000	0.000000	0.000000	0.000000	1749113632.505639	0.000000
35.000000	-92000.696600	57703.062320	51026.126865	0.000000	0.000000	0.000000	0.000000	0.000000	0.008000	-0.012000	-1.012000	192.000000	0.000000	0.000000	0.000000	0.000000	0.000000	0.000000	0.000000	0.000000	0.000000	1749113632.508778	0.000000
36.000000	-92915.039410	57648.054677	50920.939555	0.000000	0.000000	0.000000	0.000000	0.000000	0.006000	-0.010000	-1.010000	192.000000	0.000000	48.000000	255.000000	176.000000	224.000000	112.000000	0.000000	0.000000	0.000000	1749113632.512595	0.000000
37.000000	-90069.170602	57723.692980	51179.079852	0.000000	0.000000	0.000000	0.000000	0.000000	0.006000	-0.010000	-1.010000	192.000000	0.000000	0.000000	0.000000	0.000000	0.000000	0.000000	0.000000	0.000000	0.000000	1749113632.516626	0.000000
38.000000	-86734.893827	57824.879327	51440.327041	0.000000	0.000000	0.000000	0.000000	0.000000	0.006000	-0.010000	-1.010000	192.000000	0.000000	0.000000	0.000000	0.000000	0.000000	0.000000	0.000000	0.000000	0.000000	1749113632.520614	0.000000
39.000000	-88122.400716	57810.328342	51345.108610	0.000000	0.000000	0.000000	0.000000	0.000000	0.006000	-0.010000	-1.010000	192.000000	0.000000	0.000000	0.000000	0.000000	0.000000	0.000000	0.000000	0.000000	0.000000	1749113632.524602	0.000000
40.000000	-91989.341913	57700.715387	51024.539891	0.000000	0.000000	0.000000	0.000000	0.000000	0.006000	-0.010000	-1.010000	192.000000	0.000000	0.000000	0.000000	0.000000	0.000000	0.000000	0.000000	0.000000	0.000000	1749113632.528646	0.000000
41.000000	-92917.967489	57648.457008	50921.788922	0.000000	0.000000	0.000000	0.000000	0.000000	0.006000	-0.010000	-1.010000	192.000000	0.000000	0.000000	0.000000	0.000000	0.000000	0.000000	0.000000	0.000000	0.000000	1749113632.533753	0.000000
42.000000	-90087.610792	57722.933021	51178.006968	0.000000	0.000000	0.000000	0.000000	0.000000	0.006000	-0.010000	-1.010000	192.000000	0.000000	0.000000	0.000000	0.000000	0.000000	0.000000	0.000000	0.000000	0.000000	1749113632.536796	0.000000
43.000000	-86746.717900	57829.349676	51444.529169	0.000000	0.000000	0.000000	0.000000	0.000000	0.006000	-0.010000	-1.010000	192.000000	0.000000	0.000000	0.000000	0.000000	0.000000	0.000000	0.000000	0.000000	0.000000	1749113632.540665	0.000000
44.000000	-88103.848768	57815.826871	51351.702374	0.000000	0.000000	0.000000	0.000000	0.000000	0.006000	-0.010000	-1.010000	192.000000	0.000000	0.000000	0.000000	0.000000	0.000000	0.000000	0.000000	0.000000	0.000000	1749113632.544681	0.000000
45.000000	-91972.980436	57701.989436	51027.177397	0.000000	0.000000	0.000000	0.000000	0.000000	0.006000	-0.010000	-1.010000	192.000000	0.000000	0.000000	0.000000	0.000000	0.000000	0.000000	0.000000	0.000000	0.000000	1749113632.548629	0.000000
46.000000	-92917.900433	57644.411343	50917.743256	0.000000	0.000000	0.000000	0.000000	0.000000	0.010000	-0.008000	-1.010000	192.000000	0.000000	80.000000	255.000000	192.000000	224.000000	112.000000	0.000000	0.000000	0.000000	1749113632.552703	0.000000
47.000000	-90094.293963	57719.312038	51174.385986	0.000000	0.000000	0.000000	0.000000	0.000000	0.010000	-0.008000	-1.010000	192.000000	0.000000	0.000000	0.000000	0.000000	0.000000	0.000000	0.000000	0.000000	0.000000	1749113632.556665	0.000000
48.000000	-86750.338882	57825.304011	51440.997594	0.000000	0.000000	0.000000	0.000000	0.000000	0.010000	-0.008000	-1.010000	192.000000	0.000000	0.000000	0.000000	0.000000	0.000000	0.000000	0.000000	0.000000	0.000000	1749113632.561671	0.000000
49.000000	-88098.752570	57813.144662	51349.847180	0.000000	0.000000	0.000000	0.000000	0.000000	0.010000	-0.008000	-1.010000	192.000000	0.000000	0.000000	0.000000	0.000000	0.000000	0.000000	0.000000	0.000000	0.000000	1749113632.564763	0.000000
50.000000	-91966.386672	57700.603628	51026.551548	0.000000	0.000000	0.000000	0.000000	0.000000	0.010000	-0.008000	-1.010000	192.000000	0.000000	0.000000	0.000000	0.000000	0.000000	0.000000	0.000000	0.000000	0.000000	1749113632.568887	0.000000
51.000000	-92923.890701	57643.271404	50916.200985	0.000000	0.000000	0.000000	0.000000	0.000000	0.010000	-0.008000	-1.010000	192.000000	0.000000	0.000000	0.000000	0.000000	0.000000	0.000000	0.000000	0.000000	0.000000	1749113632.572732	0.000000
52.000000	-90117.785647	57717.993285	51171.994349	0.000000	0.000000	0.000000	0.000000	0.000000	0.010000	-0.008000	-1.010000	192.000000	0.000000	0.000000	0.000000	0.000000	0.000000	0.000000	0.000000	0.000000	0.000000	1749113632.576741	0.000000
53.000000	-86750.584751	57822.778263	51438.605957	0.000000	0.000000	0.000000	0.000000	0.000000	0.010000	-0.008000	-1.010000	192.000000	0.000000	0.000000	0.000000	0.000000	0.000000	0.000000	0.000000	0.000000	0.000000	1749113632.580724	0.000000
54.000000	-88080.334733	57811.401225	51349.176627	0.000000	0.000000	0.000000	0.000000	0.000000	0.010000	-0.008000	-1.010000	192.000000	0.000000	0.000000	0.000000	0.000000	0.000000	0.000000	0.000000	0.000000	0.000000	1749113632.584728	0.000000
55.000000	-91955.143744	57701.788271	51028.496150	0.000000	0.000000	0.000000	0.000000	0.000000	0.010000	-0.008000	-1.010000	192.000000	0.000000	0.000000	0.000000	0.000000	0.000000	0.000000	0.000000	0.000000	0.000000	1749113632.589749	0.000000
56.000000	-92924.561253	57644.523101	50917.855015	0.000000	0.000000	0.000000	0.000000	0.000000	0.014000	-0.014000	-1.012000	192.000000	0.000000	112.000000	255.000000	144.000000	224.000000	96.000000	0.000000	0.000000	0.000000	1749113632.593725	0.000000
57.000000	-90128.358022	57717.590954	51171.167334	0.000000	0.000000	0.000000	0.000000	0.000000	0.014000	-0.014000	-1.012000	192.000000	0.000000	0.000000	0.000000	0.000000	0.000000	0.000000	0.000000	0.000000	0.000000	1749113632.596950	0.000000
58.000000	-86755.300970	57822.219470	51437.890701	0.000000	0.000000	0.000000	0.000000	0.000000	0.014000	-0.014000	-1.012000	192.000000	0.000000	0.000000	0.000000	0.000000	0.000000	0.000000	0.000000	0.000000	0.000000	1749113632.600907	0.000000
59.000000	-88066.923686	57816.743292	51355.323357	0.000000	0.000000	0.000000	0.000000	0.000000	0.014000	-0.014000	-1.012000	192.000000	0.000000	0.000000	0.000000	0.000000	0.000000	0.000000	0.000000	0.000000	0.000000	1749113632.604880	0.000000
60.000000	-91940.145724	57707.130338	51034.575824	0.000000	0.000000	0.000000	0.000000	0.000000	0.014000	-0.014000	-1.012000	192.000000	0.000000	0.000000	0.000000	0.000000	0.000000	0.000000	0.000000	0.000000	0.000000	1749113632.608725	0.000000
61.000000	-92920.135608	57647.518235	50920.671334	0.000000	0.000000	0.000000	0.000000	0.000000	0.014000	-0.014000	-1.012000	192.000000	0.000000	0.000000	0.000000	0.000000	0.000000	0.000000	0.000000	0.000000	0.000000	1749113632.612768	0.000000
62.000000	-90123.150065	57718.552079	51172.016701	0.000000	0.000000	0.000000	0.000000	0.000000	0.014000	-0.014000	-1.012000	192.000000	0.000000	0.000000	0.000000	0.000000	0.000000	0.000000	0.000000	0.000000	0.000000	1749113632.617790	0.000000
63.000000	-86752.864629	57823.873499	51439.097695	0.000000	0.000000	0.000000	0.000000	0.000000	0.014000	-0.014000	-1.012000	192.000000	0.000000	0.000000	0.000000	0.000000	0.000000	0.000000	0.000000	0.000000	0.000000	1749113632.620764	0.000000
64.000000	-88051.702148	57813.412882	51352.417630	0.000000	0.000000	0.000000	0.000000	0.000000	0.014000	-0.014000	-1.012000	192.000000	0.000000	0.000000	0.000000	0.000000	0.000000	0.000000	0.000000	0.000000	0.000000	1749113632.623775	0.000000
65.000000	-91925.013593	57701.989436	51030.485455	0.000000	0.000000	0.000000	0.000000	0.000000	0.014000	-0.014000	-1.012000	192.000000	0.000000	0.000000	0.000000	0.000000	0.000000	0.000000	0.000000	0.000000	0.000000	1749113632.628915	0.000000
66.000000	-92924.471846	57643.472569	50916.469206	0.000000	0.000000	0.000000	0.000000	0.000000	0.016000	-0.012000	-1.010000	192.000000	0.000000	128.000000	255.000000	160.000000	224.000000	112.000000	0.000000	0.000000	0.000000	1749113632.633024	0.000000
67.000000	-90153.704900	57714.573469	51166.965206	0.000000	0.000000	0.000000	0.000000	0.000000	0.016000	-0.012000	-1.010000	192.000000	0.000000	0.000000	0.000000	0.000000	0.000000	0.000000	0.000000	0.000000	0.000000	1749113632.636882	0.000000
68.000000	-86764.375778	57820.252516	51436.013155	0.000000	0.000000	0.000000	0.000000	0.000000	0.016000	-0.012000	-1.010000	192.000000	0.000000	0.000000	0.000000	0.000000	0.000000	0.000000	0.000000	0.000000	0.000000	1749113632.640866	0.000000
69.000000	-88042.560284	57811.200060	51351.612967	0.000000	0.000000	0.000000	0.000000	0.000000	0.016000	-0.012000	-1.010000	192.000000	0.000000	0.000000	0.000000	0.000000	0.000000	0.000000	0.000000	0.000000	0.000000	1749113632.645877	0.000000
70.000000	-91920.207968	57701.363588	51030.910138	0.000000	0.000000	0.000000	0.000000	0.000000	0.016000	-0.012000	-1.010000	192.000000	0.000000	0.000000	0.000000	0.000000	0.000000	0.000000	0.000000	0.000000	0.000000	1749113632.648860	0.000000
71.000000	-92929.232768	57640.097456	50913.652887	0.000000	0.000000	0.000000	0.000000	0.000000	0.016000	-0.012000	-1.010000	192.000000	0.000000	0.000000	0.000000	0.000000	0.000000	0.000000	0.000000	0.000000	0.000000	1749113632.651917	0.000000
72.000000	-90174.782595	57711.779500	51163.970073	0.000000	0.000000	0.000000	0.000000	0.000000	0.016000	-0.012000	-1.010000	192.000000	0.000000	0.000000	0.000000	0.000000	0.000000	0.000000	0.000000	0.000000	0.000000	1749113632.656825	0.000000
73.000000	-86770.522507	57817.503252	51433.398000	0.000000	0.000000	0.000000	0.000000	0.000000	0.016000	-0.012000	-1.010000	192.000000	0.000000	0.000000	0.000000	0.000000	0.000000	0.000000	0.000000	0.000000	0.000000	1749113632.661081	0.000000
74.000000	-88023.896578	57809.501327	51351.523560	0.000000	0.000000	0.000000	0.000000	0.000000	0.016000	-0.012000	-1.010000	192.000000	0.000000	0.000000	0.000000	0.000000	0.000000	0.000000	0.000000	0.000000	0.000000	1749113632.664964	0.000000
75.000000	-91906.729866	57696.803832	51027.356211	0.000000	0.000000	0.000000	0.000000	0.000000	0.010000	-0.012000	-1.016000	192.000000	0.000000	80.000000	255.000000	160.000000	224.000000	64.000000	0.000000	0.000000	0.000000	1749113632.668952	0.000000
76.000000	-92929.657451	57636.856453	50910.031904	0.000000	0.000000	0.000000	0.000000	0.000000	0.010000	-0.012000	-1.016000	192.000000	0.000000	0.000000	0.000000	0.000000	0.000000	0.000000	0.000000	0.000000	0.000000	1749113632.672917	0.000000
77.000000	-90177.420101	57710.796024	51162.941892	0.000000	0.000000	0.000000	0.000000	0.000000	0.010000	-0.012000	-1.016000	192.000000	0.000000	0.000000	0.000000	0.000000	0.000000	0.000000	0.000000	0.000000	0.000000	1749113632.676939	0.000000
78.000000	-86770.567211	57817.033865	51433.062724	0.000000	0.000000	0.000000	0.000000	0.000000	0.010000	-0.012000	-1.016000	192.000000	0.000000	0.000000	0.000000	0.000000	0.000000	0.000000	0.000000	0.000000	0.000000	1749113632.679962	0.000000
79.000000	-88020.387354	57810.283638	51352.484685	0.000000	0.000000	0.000000	0.000000	0.000000	0.010000	-0.012000	-1.016000	192.000000	0.000000	0.000000	0.000000	0.000000	0.000000	0.000000	0.000000	0.000000	0.000000	1749113632.684904	0.000000
80.000000	-91902.192462	57701.788271	51032.944147	0.000000	0.000000	0.000000	0.000000	0.000000	0.010000	-0.012000	-1.016000	192.000000	0.000000	0.000000	0.000000	0.000000	0.000000	0.000000	0.000000	0.000000	0.000000	1749113632.689015	0.000000
81.000000	-92930.484465	57642.444389	50915.619840	0.000000	0.000000	0.000000	0.000000	0.000000	0.010000	-0.012000	-1.016000	192.000000	0.000000	0.000000	0.000000	0.000000	0.000000	0.000000	0.000000	0.000000	0.000000	1749113632.693206	0.000000
82.000000	-90190.607630	57711.131300	51162.204285	0.000000	0.000000	0.000000	0.000000	0.000000	0.010000	-0.012000	-1.016000	192.000000	0.000000	0.000000	0.000000	0.000000	0.000000	0.000000	0.000000	0.000000	0.000000	1749113632.696965	0.000000
83.000000	-86766.387435	57816.720941	51432.727448	0.000000	0.000000	0.000000	0.000000	0.000000	0.010000	-0.012000	-1.016000	192.000000	0.000000	0.000000	0.000000	0.000000	0.000000	0.000000	0.000000	0.000000	0.000000	1749113632.700999	0.000000
84.000000	-88003.757656	57809.188403	51351.970595	0.000000	0.000000	0.000000	0.000000	0.000000	0.010000	-0.012000	-1.016000	192.000000	0.000000	0.000000	0.000000	0.000000	0.000000	0.000000	0.000000	0.000000	0.000000	1749113632.704950	0.000000
85.000000	-91889.139043	57699.821317	51031.446580	0.000000	0.000000	0.000000	0.000000	0.000000	0.010000	-0.010000	-1.020000	192.000000	0.000000	80.000000	255.000000	176.000000	224.000000	32.000000	0.000000	0.000000	0.000000	1749113632.708026	0.000000
86.000000	-92929.813913	57639.493959	50913.071741	0.000000	0.000000	0.000000	0.000000	0.000000	0.010000	-0.010000	-1.020000	192.000000	0.000000	0.000000	0.000000	0.000000	0.000000	0.000000	0.000000	0.000000	0.000000	1749113632.713015	0.000000
87.000000	-90193.938040	57709.544326	51160.527904	0.000000	0.000000	0.000000	0.000000	0.000000	0.010000	-0.010000	-1.020000	192.000000	0.000000	0.000000	0.000000	0.000000	0.000000	0.000000	0.000000	0.000000	0.000000	1749113632.717040	0.000000
88.000000	-86772.891792	57816.095092	51431.833378	0.000000	0.000000	0.000000	0.000000	0.000000	0.010000	-0.010000	-1.020000	192.000000	0.000000	0.000000	0.000000	0.000000	0.000000	0.000000	0.000000	0.000000	0.000000	1749113632.720945	0.000000
89.000000	-87982.188223	57810.060121	51353.758735	0.000000	0.000000	0.000000	0.000000	0.000000	0.010000	-0.010000	-1.020000	192.000000	0.000000	0.000000	0.000000	0.000000	0.000000	0.000000	0.000000	0.000000	0.000000	1749113632.725140	0.000000
90.000000	-91872.196421	57700.782442	51033.569996	0.000000	0.000000	0.000000	0.000000	0.000000	0.010000	-0.010000	-1.020000	192.000000	0.000000	0.000000	0.000000	0.000000	0.000000	0.000000	0.000000	0.000000	0.000000	1749113632.729065	0.000000
91.000000	-92931.646756	57638.376372	50911.596526	0.000000	0.000000	0.000000	0.000000	0.000000	0.010000	-0.010000	-1.020000	192.000000	0.000000	0.000000	0.000000	0.000000	0.000000	0.000000	0.000000	0.000000	0.000000	1749113632.733009	0.000000
92.000000	-90206.745590	57710.147823	51160.483201	0.000000	0.000000	0.000000	0.000000	0.000000	0.010000	-0.010000	-1.020000	192.000000	0.000000	0.000000	0.000000	0.000000	0.000000	0.000000	0.000000	0.000000	0.000000	1749113632.736068	0.000000
93.000000	-86779.284391	57815.290429	51431.073419	0.000000	0.000000	0.000000	0.000000	0.000000	0.010000	-0.010000	-1.020000	192.000000	0.000000	0.000000	0.000000	0.000000	0.000000	0.000000	0.000000	0.000000	0.000000	1749113632.740069	0.000000
94.000000	-87978.500185	57806.662656	51351.210636	0.000000	0.000000	0.000000	0.000000	0.000000	0.010000	-0.010000	-1.020000	192.000000	0.000000	0.000000	0.000000	0.000000	0.000000	0.000000	0.000000	0.000000	0.000000	1749113632.744122	0.000000
95.000000	-91862.249894	57697.094404	51031.223062	0.000000	0.000000	0.000000	0.000000	0.000000	0.012000	-0.016000	-1.014000	192.000000	0.000000	96.000000	255.000000	128.000000	224.000000	80.000000	0.000000	0.000000	0.000000	1749113632.749119	0.000000
96.000000	-92936.653547	57639.248090	50912.580003	0.000000	0.000000	0.000000	0.000000	0.000000	0.012000	-0.016000	-1.014000	192.000000	0.000000	0.000000	0.000000	0.000000	0.000000	0.000000	0.000000	0.000000	0.000000	1749113632.753164	0.000000
97.000000	-90237.501590	57710.594858	51159.969110	0.000000	0.000000	0.000000	0.000000	0.000000	0.012000	-0.016000	-1.014000	192.000000	0.000000	0.000000	0.000000	0.000000	0.000000	0.000000	0.000000	0.000000	0.000000	1749113632.757229	0.000000
98.000000	-86784.984086	57816.028037	51432.213358	0.000000	0.000000	0.000000	0.000000	0.000000	0.012000	-0.016000	-1.014000	192.000000	0.000000	0.000000	0.000000	0.000000	0.000000	0.000000	0.000000	0.000000	0.000000	1749113632.760140	0.000000
99.000000	-87957.556600	57807.064987	51353.043479	0.000000	0.000000	0.000000	0.000000	0.000000	0.012000	-0.016000	-1.014000	192.000000	0.000000	0.000000	0.000000	0.000000	0.000000	0.000000	0.000000	0.000000	0.000000	1749113632.764138	0.000000
100.000000	-91849.487048	57695.909762	51030.887786	0.000000	0.000000	0.000000	0.000000	0.000000	0.012000	-0.016000	-1.014000	192.000000	0.000000	0.000000	0.000000	0.000000	0.000000	0.000000	0.000000	0.000000	0.000000	1749113632.768030	0.000000
101.000000	-92936.988823	57638.555186	50912.155320	0.000000	0.000000	0.000000	0.000000	0.000000	0.012000	-0.016000	-1.014000	192.000000	0.000000	0.000000	0.000000	0.000000	0.000000	0.000000	0.000000	0.000000	0.000000	1749113632.773058	0.000000
102.000000	-90246.576398	57709.186698	51158.315081	0.000000	0.000000	0.000000	0.000000	0.000000	0.012000	-0.016000	-1.014000	192.000000	0.000000	0.000000	0.000000	0.000000	0.000000	0.000000	0.000000	0.000000	0.000000	1749113632.777117	0.000000
103.000000	-86791.734313	57814.776339	51431.095771	0.000000	0.000000	0.000000	0.000000	0.000000	0.012000	-0.016000	-1.014000	192.000000	0.000000	0.000000	0.000000	0.000000	0.000000	0.000000	0.000000	0.000000	0.000000	1749113632.781083	0.000000
104.000000	-87945.285493	57811.043598	51358.340843	0.000000	0.000000	0.000000	0.000000	0.000000	0.012000	-0.016000	-1.014000	192.000000	0.000000	0.000000	0.000000	0.000000	0.000000	0.000000	0.000000	0.000000	0.000000	1749113632.785253	0.000000
105.000000	-91840.099316	57701.005960	51036.699240	0.000000	0.000000	0.000000	0.000000	0.000000	0.008000	-0.014000	-1.010000	192.000000	0.000000	64.000000	255.000000	144.000000	224.000000	112.000000	0.000000	0.000000	0.000000	1749113632.788191	0.000000
106.000000	-92937.122934	57636.923508	50909.920145	0.000000	0.000000	0.000000	0.000000	0.000000	0.008000	-0.014000	-1.010000	192.000000	0.000000	0.000000	0.000000	0.000000	0.000000	0.000000	0.000000	0.000000	0.000000	1749113632.792161	0.000000
107.000000	-90249.102145	57709.030236	51157.756288	0.000000	0.000000	0.000000	0.000000	0.000000	0.008000	-0.014000	-1.010000	192.000000	0.000000	0.000000	0.000000	0.000000	0.000000	0.000000	0.000000	0.000000	0.000000	1749113632.796178	0.000000
108.000000	-86787.129854	57814.418711	51430.514625	0.000000	0.000000	0.000000	0.000000	0.000000	0.008000	-0.014000	-1.010000	192.000000	0.000000	0.000000	0.000000	0.000000	0.000000	0.000000	0.000000	0.000000	0.000000	1749113632.800159	0.000000
109.000000	-87934.087269	57807.601429	51355.055136	0.000000	0.000000	0.000000	0.000000	0.000000	0.008000	-0.014000	-1.010000	192.000000	0.000000	0.000000	0.000000	0.000000	0.000000	0.000000	0.000000	0.000000	0.000000	1749113632.805220	0.000000
110.000000	-91825.838903	57699.418986	51035.983984	0.000000	0.000000	0.000000	0.000000	0.000000	0.008000	-0.014000	-1.010000	192.000000	0.000000	0.000000	0.000000	0.000000	0.000000	0.000000	0.000000	0.000000	0.000000	1749113632.809183	0.000000
111.000000	-92936.094753	57638.242261	50911.529471	0.000000	0.000000	0.000000	0.000000	0.000000	0.008000	-0.014000	-1.010000	192.000000	0.000000	0.000000	0.000000	0.000000	0.000000	0.000000	0.000000	0.000000	0.000000	1749113632.813171	0.000000
112.000000	-90270.470413	57707.443262	51155.275244	0.000000	0.000000	0.000000	0.000000	0.000000	0.008000	-0.014000	-1.010000	192.000000	0.000000	0.000000	0.000000	0.000000	0.000000	0.000000	0.000000	0.000000	0.000000	1749113632.816158	0.000000
113.000000	-86797.165787	57813.524641	51429.352335	0.000000	0.000000	0.000000	0.000000	0.000000	0.008000	-0.014000	-1.010000	192.000000	0.000000	0.000000	0.000000	0.000000	0.000000	0.000000	0.000000	0.000000	0.000000	1749113632.820304	0.000000
114.000000	-87922.821989	57807.556725	51355.904502	0.000000	0.000000	0.000000	0.000000	0.000000	0.008000	-0.014000	-1.010000	192.000000	0.000000	0.000000	0.000000	0.000000	0.000000	0.000000	0.000000	0.000000	0.000000	1749113632.824428	0.000000
115.000000	-91814.953603	57697.988474	51035.268728	0.000000	0.000000	0.000000	0.000000	0.000000	0.010000	-0.014000	-1.014000	192.000000	0.000000	80.000000	255.000000	144.000000	224.000000	80.000000	0.000000	0.000000	0.000000	1749113632.828251	0.000000
116.000000	-92936.698250	57634.397761	50907.841433	0.000000	0.000000	0.000000	0.000000	0.000000	0.010000	-0.014000	-1.014000	192.000000	0.000000	0.000000	0.000000	0.000000	0.000000	0.000000	0.000000	0.000000	0.000000	1749113632.833199	0.000000
117.000000	-90281.579230	57705.029274	51152.369517	0.000000	0.000000	0.000000	0.000000	0.000000	0.010000	-0.014000	-1.014000	192.000000	0.000000	0.000000	0.000000	0.000000	0.000000	0.000000	0.000000	0.000000	0.000000	1749113632.837288	0.000000
118.000000	-86793.857729	57811.177708	51427.072457	0.000000	0.000000	0.000000	0.000000	0.000000	0.010000	-0.014000	-1.014000	192.000000	0.000000	0.000000	0.000000	0.000000	0.000000	0.000000	0.000000	0.000000	0.000000	1749113632.841231	0.000000
119.000000	-87901.386666	57805.634475	51354.786915	0.000000	0.000000	0.000000	0.000000	0.000000	0.010000	-0.014000	-1.014000	192.000000	0.000000	0.000000	0.000000	0.000000	0.000000	0.000000	0.000000	0.000000	0.000000	1749113632.844179	0.000000
120.000000	-91803.464806	57695.060396	51033.122961	0.000000	0.000000	0.000000	0.000000	0.000000	0.010000	-0.014000	-1.014000	192.000000	0.000000	0.000000	0.000000	0.000000	0.000000	0.000000	0.000000	0.000000	0.000000	1749113632.848199	0.000000
121.000000	-92939.738088	57632.296697	50905.472148	0.000000	0.000000	0.000000	0.000000	0.000000	0.010000	-0.014000	-1.014000	192.000000	0.000000	0.000000	0.000000	0.000000	0.000000	0.000000	0.000000	0.000000	0.000000	1749113632.852272	0.000000
122.000000	-90301.315820	57702.928210	51149.866122	0.000000	0.000000	0.000000	0.000000	0.000000	0.010000	-0.014000	-1.014000	192.000000	0.000000	0.000000	0.000000	0.000000	0.000000	0.000000	0.000000	0.000000	0.000000	1749113632.856362	0.000000
123.000000	-86808.207549	57809.657789	51425.574890	0.000000	0.000000	0.000000	0.000000	0.000000	0.010000	-0.014000	-1.014000	192.000000	0.000000	0.000000	0.000000	0.000000	0.000000	0.000000	0.000000	0.000000	0.000000	1749113632.861226	0.000000
124.000000	-87889.160262	57804.092205	51354.496342	0.000000	0.000000	0.000000	0.000000	0.000000	0.008000	-0.010000	-1.018000	192.000000	0.000000	64.000000	255.000000	176.000000	224.000000	48.000000	0.000000	0.000000	0.000000	1749113632.865405	0.000000
125.000000	-91790.567850	57692.802869	51032.251243	0.000000	0.000000	0.000000	0.000000	0.000000	0.008000	-0.010000	-1.018000	192.000000	0.000000	0.000000	0.000000	0.000000	0.000000	0.000000	0.000000	0.000000	0.000000	1749113632.869377	0.000000
126.000000	-92944.253140	57629.480377	50902.879346	0.000000	0.000000	0.000000	0.000000	0.000000	0.008000	-0.010000	-1.018000	192.000000	0.000000	0.000000	0.000000	0.000000	0.000000	0.000000	0.000000	0.000000	0.000000	1749113632.872253	0.000000
127.000000	-90313.475169	57698.189640	51144.658166	0.000000	0.000000	0.000000	0.000000	0.000000	0.008000	-0.010000	-1.018000	192.000000	0.000000	0.000000	0.000000	0.000000	0.000000	0.000000	0.000000	0.000000	0.000000	1749113632.876242	0.000000
128.000000	-86805.391229	57805.947400	51422.333887	0.000000	0.000000	0.000000	0.000000	0.000000	0.008000	-0.010000	-1.018000	192.000000	0.000000	0.000000	0.000000	0.000000	0.000000	0.000000	0.000000	0.000000	0.000000	1749113632.880293	0.000000
129.000000	-87883.684085	57803.153432	51354.116363	0.000000	0.000000	0.000000	0.000000	0.000000	0.008000	-0.010000	-1.018000	192.000000	0.000000	0.000000	0.000000	0.000000	0.000000	0.000000	0.000000	0.000000	0.000000	1749113632.884258	0.000000
130.000000	-91785.248135	57695.015692	51034.844045	0.000000	0.000000	0.000000	0.000000	0.000000	0.008000	-0.010000	-1.018000	192.000000	0.000000	0.000000	0.000000	0.000000	0.000000	0.000000	0.000000	0.000000	0.000000	1749113632.888383	0.000000
131.000000	-92941.347413	57631.402627	50905.047465	0.000000	0.000000	0.000000	0.000000	0.000000	0.008000	-0.010000	-1.018000	192.000000	0.000000	0.000000	0.000000	0.000000	0.000000	0.000000	0.000000	0.000000	0.000000	1749113632.893328	0.000000
132.000000	-90329.836646	57697.183811	51142.959433	0.000000	0.000000	0.000000	0.000000	0.000000	0.008000	-0.010000	-1.018000	192.000000	0.000000	0.000000	0.000000	0.000000	0.000000	0.000000	0.000000	0.000000	0.000000	1749113632.897274	0.000000
133.000000	-86819.070496	57802.013493	51417.930593	0.000000	0.000000	0.000000	0.000000	0.000000	0.008000	-0.010000	-1.018000	192.000000	0.000000	0.000000	0.000000	0.000000	0.000000	0.000000	0.000000	0.000000	0.000000	1749113632.900306	0.000000
134.000000	-87865.802689	57796.872592	51348.953110	0.000000	0.000000	0.000000	0.000000	0.000000	0.008000	-0.016000	-1.018000	192.000000	0.000000	64.000000	255.000000	128.000000	224.000000	48.000000	0.000000	0.000000	0.000000	1749113632.904272	0.000000
135.000000	-91772.217068	57688.936018	51029.569033	0.000000	0.000000	0.000000	0.000000	0.000000	0.008000	-0.016000	-1.018000	192.000000	0.000000	0.000000	0.000000	0.000000	0.000000	0.000000	0.000000	0.000000	0.000000	1749113632.908293	0.000000
136.000000	-92946.287149	57626.284078	50899.236011	0.000000	0.000000	0.000000	0.000000	0.000000	0.008000	-0.016000	-1.018000	192.000000	0.000000	0.000000	0.000000	0.000000	0.000000	0.000000	0.000000	0.000000	0.000000	1749113632.912270	0.000000
137.000000	-90341.392498	57693.272256	51138.511436	0.000000	0.000000	0.000000	0.000000	0.000000	0.008000	-0.016000	-1.018000	192.000000	0.000000	0.000000	0.000000	0.000000	0.000000	0.000000	0.000000	0.000000	0.000000	1749113632.916302	0.000000
138.000000	-86826.848904	57800.582981	51416.075398	0.000000	0.000000	0.000000	0.000000	0.000000	0.008000	-0.016000	-1.018000	192.000000	0.000000	0.000000	0.000000	0.000000	0.000000	0.000000	0.000000	0.000000	0.000000	1749113632.921608	0.000000
139.000000	-87860.438271	57798.839545	51351.322395	0.000000	0.000000	0.000000	0.000000	0.000000	0.008000	-0.016000	-1.018000	192.000000	0.000000	0.000000	0.000000	0.000000	0.000000	0.000000	0.000000	0.000000	0.000000	1749113632.925369	0.000000
140.000000	-91759.141297	57690.120660	51031.938318	0.000000	0.000000	0.000000	0.000000	0.000000	0.008000	-0.016000	-1.018000	192.000000	0.000000	0.000000	0.000000	0.000000	0.000000	0.000000	0.000000	0.000000	0.000000	1749113632.928347	0.000000
141.000000	-92948.455268	57628.362790	50901.471186	0.000000	0.000000	0.000000	0.000000	0.000000	0.008000	-0.016000	-1.018000	192.000000	0.000000	0.000000	0.000000	0.000000	0.000000	0.000000	0.000000	0.000000	0.000000	1749113632.932346	0.000000
142.000000	-90359.653873	57697.116756	51141.707735	0.000000	0.000000	0.000000	0.000000	0.000000	0.008000	-0.016000	-1.018000	192.000000	0.000000	0.000000	0.000000	0.000000	0.000000	0.000000	0.000000	0.000000	0.000000	1749113632.936402	0.000000
143.000000	-86829.799334	57801.365292	51417.528262	0.000000	0.000000	0.000000	0.000000	0.000000	0.008000	-0.016000	-1.018000	192.000000	0.000000	0.000000	0.000000	0.000000	0.000000	0.000000	0.000000	0.000000	0.000000	1749113632.940384	0.000000
144.000000	-87851.363462	57799.845374	51353.445810	0.000000	0.000000	0.000000	0.000000	0.000000	0.012000	-0.016000	-1.012000	192.000000	0.000000	96.000000	255.000000	128.000000	224.000000	96.000000	0.000000	0.000000	0.000000	1749113632.944345	0.000000
145.000000	-91753.888637	57691.372358	51033.994679	0.000000	0.000000	0.000000	0.000000	0.000000	0.012000	-0.016000	-1.012000	192.000000	0.000000	0.000000	0.000000	0.000000	0.000000	0.000000	0.000000	0.000000	0.000000	1749113632.949382	0.000000
146.000000	-92951.808030	57628.429845	50901.717055	0.000000	0.000000	0.000000	0.000000	0.000000	0.012000	-0.016000	-1.012000	192.000000	0.000000	0.000000	0.000000	0.000000	0.000000	0.000000	0.000000	0.000000	0.000000	1749113632.953495	0.000000
147.000000	-90379.926906	57696.781480	51140.679555	0.000000	0.000000	0.000000	0.000000	0.000000	0.012000	-0.016000	-1.012000	192.000000	0.000000	0.000000	0.000000	0.000000	0.000000	0.000000	0.000000	0.000000	0.000000	1749113632.956575	0.000000
148.000000	-86832.369784	57804.650999	51420.545747	0.000000	0.000000	0.000000	0.000000	0.000000	0.012000	-0.016000	-1.012000	192.000000	0.000000	0.000000	0.000000	0.000000	0.000000	0.000000	0.000000	0.000000	0.000000	1749113632.960707	0.000000
149.000000	-87837.080698	57802.460528	51357.156200	0.000000	0.000000	0.000000	0.000000	0.000000	0.012000	-0.016000	-1.012000	192.000000	0.000000	0.000000	0.000000	0.000000	0.000000	0.000000	0.000000	0.000000	0.000000	1749113632.964446	0.000000
150.000000	-91743.360966	57693.428718	51036.788647	0.000000	0.000000	0.000000	0.000000	0.000000	0.012000	-0.016000	-1.012000	192.000000	0.000000	0.000000	0.000000	0.000000	0.000000	0.000000	0.000000	0.000000	0.000000	1749113632.968403	0.000000
151.000000	-92955.898399	57628.139273	50901.113558	0.000000	0.000000	0.000000	0.000000	0.000000	0.012000	-0.016000	-1.012000	192.000000	0.000000	0.000000	0.000000	0.000000	0.000000	0.000000	0.000000	0.000000	0.000000	1749113632.972433	0.000000
152.000000	-90399.104702	57694.121622	51137.416200	0.000000	0.000000	0.000000	0.000000	0.000000	0.012000	-0.016000	-1.012000	192.000000	0.000000	0.000000	0.000000	0.000000	0.000000	0.000000	0.000000	0.000000	0.000000	1749113632.976484	0.000000
153.000000	-86848.239523	57802.706397	51418.154111	0.000000	0.000000	0.000000	0.000000	0.000000	0.012000	-0.016000	-1.012000	192.000000	0.000000	0.000000	0.000000	0.000000	0.000000	0.000000	0.000000	0.000000	0.000000	1749113632.981524	0.000000
154.000000	-87834.242026	57804.159260	51359.033747	0.000000	0.000000	0.000000	0.000000	0.000000	0.012000	-0.014000	-1.016000	192.000000	0.000000	96.000000	255.000000	144.000000	224.000000	64.000000	0.000000	0.000000	0.000000	1749113632.984468	0.000000
155.000000	-91732.810942	57694.568657	51038.777952	0.000000	0.000000	0.000000	0.000000	0.000000	0.012000	-0.014000	-1.016000	192.000000	0.000000	0.000000	0.000000	0.000000	0.000000	0.000000	0.000000	0.000000	0.000000	1749113632.988605	0.000000
156.000000	-92955.429012	57628.049866	50900.867689	0.000000	0.000000	0.000000	0.000000	0.000000	0.012000	-0.014000	-1.016000	192.000000	0.000000	0.000000	0.000000	0.000000	0.000000	0.000000	0.000000	0.000000	0.000000	1749113632.992549	0.000000
157.000000	-90411.107589	57692.624055	51135.024564	0.000000	0.000000	0.000000	0.000000	0.000000	0.012000	-0.014000	-1.016000	192.000000	0.000000	0.000000	0.000000	0.000000	0.000000	0.000000	0.000000	0.000000	0.000000	1749113632.996534	0.000000
158.000000	-86847.993654	57801.097071	51416.433026	0.000000	0.000000	0.000000	0.000000	0.000000	0.012000	-0.014000	-1.016000	192.000000	0.000000	0.000000	0.000000	0.000000	0.000000	0.000000	0.000000	0.000000	0.000000	1749113633.000466	0.000000
159.000000	-87813.611366	57801.141775	51356.686813	0.000000	0.000000	0.000000	0.000000	0.000000	0.012000	-0.014000	-1.016000	192.000000	0.000000	0.000000	0.000000	0.000000	0.000000	0.000000	0.000000	0.000000	0.000000	1749113633.005544	0.000000
160.000000	-91721.635070	57691.484116	51036.140446	0.000000	0.000000	0.000000	0.000000	0.000000	0.012000	-0.014000	-1.016000	192.000000	0.000000	0.000000	0.000000	0.000000	0.000000	0.000000	0.000000	0.000000	0.000000	1749113633.009524	0.000000
161.000000	-92956.412489	57624.115959	50896.956133	0.000000	0.000000	0.000000	0.000000	0.000000	0.012000	-0.014000	-1.016000	192.000000	0.000000	0.000000	0.000000	0.000000	0.000000	0.000000	0.000000	0.000000	0.000000	1749113633.012544	0.000000
162.000000	-90422.954014	57689.830087	51131.247119	0.000000	0.000000	0.000000	0.000000	0.000000	0.012000	-0.014000	-1.016000	192.000000	0.000000	0.000000	0.000000	0.000000	0.000000	0.000000	0.000000	0.000000	0.000000	1749113633.016661	0.000000
163.000000	-86854.542715	57798.928952	51413.594355	0.000000	0.000000	0.000000	0.000000	0.000000	0.012000	-0.014000	-1.016000	192.000000	0.000000	0.000000	0.000000	0.000000	0.000000	0.000000	0.000000	0.000000	0.000000	1749113633.020662	0.000000
164.000000	-87793.852424	57798.794842	51355.233950	0.000000	0.000000	0.000000	0.000000	0.000000	0.012000	-0.016000	-1.012000	192.000000	0.000000	96.000000	255.000000	128.000000	224.000000	96.000000	0.000000	0.000000	0.000000	1749113633.024581	0.000000
165.000000	-91702.434922	57689.763032	51035.380487	0.000000	0.000000	0.000000	0.000000	0.000000	0.012000	-0.016000	-1.012000	192.000000	0.000000	0.000000	0.000000	0.000000	0.000000	0.000000	0.000000	0.000000	0.000000	1749113633.028602	0.000000
166.000000	-92954.110259	57623.646572	50896.263229	0.000000	0.000000	0.000000	0.000000	0.000000	0.012000	-0.016000	-1.012000	192.000000	0.000000	0.000000	0.000000	0.000000	0.000000	0.000000	0.000000	0.000000	0.000000	1749113633.032595	0.000000
167.000000	-90428.921929	57689.874791	51131.001250	0.000000	0.000000	0.000000	0.000000	0.000000	0.012000	-0.016000	-1.012000	192.000000	0.000000	0.000000	0.000000	0.000000	0.000000	0.000000	0.000000	0.000000	0.000000	1749113633.037633	0.000000
168.000000	-86854.028625	57799.711263	51414.667239	0.000000	0.000000	0.000000	0.000000	0.000000	0.012000	-0.016000	-1.012000	192.000000	0.000000	0.000000	0.000000	0.000000	0.000000	0.000000	0.000000	0.000000	0.000000	1749113633.040623	0.000000
169.000000	-87784.554098	57800.158298	51357.491476	0.000000	0.000000	0.000000	0.000000	0.000000	0.012000	-0.016000	-1.012000	192.000000	0.000000	0.000000	0.000000	0.000000	0.000000	0.000000	0.000000	0.000000	0.000000	1749113633.044621	0.000000
170.000000	-91687.727474	57690.500640	51037.302737	0.000000	0.000000	0.000000	0.000000	0.000000	0.012000	-0.016000	-1.012000	192.000000	0.000000	0.000000	0.000000	0.000000	0.000000	0.000000	0.000000	0.000000	0.000000	1749113633.048776	0.000000
171.000000	-92957.820649	57622.730151	50895.413863	0.000000	0.000000	0.000000	0.000000	0.000000	0.012000	-0.016000	-1.012000	192.000000	0.000000	0.000000	0.000000	0.000000	0.000000	0.000000	0.000000	0.000000	0.000000	1749113633.052764	0.000000
172.000000	-90454.827601	57686.097346	51126.307383	0.000000	0.000000	0.000000	0.000000	0.000000	0.012000	-0.016000	-1.012000	192.000000	0.000000	0.000000	0.000000	0.000000	0.000000	0.000000	0.000000	0.000000	0.000000	1749113633.056671	0.000000
173.000000	-86863.036378	57796.313798	51411.426236	0.000000	0.000000	0.000000	0.000000	0.000000	0.012000	-0.016000	-1.012000	192.000000	0.000000	0.000000	0.000000	0.000000	0.000000	0.000000	0.000000	0.000000	0.000000	1749113633.060618	0.000000
174.000000	-87770.628961	57797.990179	51356.329186	0.000000	0.000000	0.000000	0.000000	0.000000	0.008000	-0.012000	-1.014000	192.000000	0.000000	64.000000	255.000000	160.000000	224.000000	80.000000	0.000000	0.000000	0.000000	1749113633.065675	0.000000
175.000000	-91680.753729	57689.338349	51036.922757	0.000000	0.000000	0.000000	0.000000	0.000000	0.008000	-0.012000	-1.014000	192.000000	0.000000	0.000000	0.000000	0.000000	0.000000	0.000000	0.000000	0.000000	0.000000	1749113633.068626	0.000000
176.000000	-92960.569913	57622.528985	50895.458567	0.000000	0.000000	0.000000	0.000000	0.000000	0.008000	-0.012000	-1.014000	192.000000	0.000000	0.000000	0.000000	0.000000	0.000000	0.000000	0.000000	0.000000	0.000000	1749113633.072674	0.000000
177.000000	-90467.590447	57688.243114	51128.184930	0.000000	0.000000	0.000000	0.000000	0.000000	0.008000	-0.012000	-1.014000	192.000000	0.000000	0.000000	0.000000	0.000000	0.000000	0.000000	0.000000	0.000000	0.000000	1749113633.076640	0.000000
178.000000	-86870.747730	57795.598542	51410.822739	0.000000	0.000000	0.000000	0.000000	0.000000	0.008000	-0.012000	-1.014000	192.000000	0.000000	0.000000	0.000000	0.000000	0.000000	0.000000	0.000000	0.000000	0.000000	1749113633.080746	0.000000
179.000000	-87754.759223	57798.213696	51357.714994	0.000000	0.000000	0.000000	0.000000	0.000000	0.008000	-0.012000	-1.014000	192.000000	0.000000	0.000000	0.000000	0.000000	0.000000	0.000000	0.000000	0.000000	0.000000	1749113633.084729	0.000000
180.000000	-91664.973398	57691.260599	51039.739077	0.000000	0.000000	0.000000	0.000000	0.000000	0.008000	-0.012000	-1.014000	192.000000	0.000000	0.000000	0.000000	0.000000	0.000000	0.000000	0.000000	0.000000	0.000000	1749113633.088670	0.000000
181.000000	-92957.664187	57623.311296	50895.950305	0.000000	0.000000	0.000000	0.000000	0.000000	0.008000	-0.012000	-1.014000	192.000000	0.000000	0.000000	0.000000	0.000000	0.000000	0.000000	0.000000	0.000000	0.000000	1749113633.093751	0.000000
182.000000	-90465.467032	57685.113869	51124.787465	0.000000	0.000000	0.000000	0.000000	0.000000	0.008000	-0.012000	-1.014000	192.000000	0.000000	0.000000	0.000000	0.000000	0.000000	0.000000	0.000000	0.000000	0.000000	1749113633.096695	0.000000
183.000000	-86869.518384	57794.659769	51409.571041	0.000000	0.000000	0.000000	0.000000	0.000000	0.012000	-0.014000	-1.012000	192.000000	0.000000	96.000000	255.000000	144.000000	224.000000	96.000000	0.000000	0.000000	0.000000	1749113633.099725	0.000000
184.000000	-87746.757298	57797.386682	51356.955034	0.000000	0.000000	0.000000	0.000000	0.000000	0.012000	-0.014000	-1.012000	192.000000	0.000000	0.000000	0.000000	0.000000	0.000000	0.000000	0.000000	0.000000	0.000000	1749113633.103718	0.000000
185.000000	-91654.311616	57688.600741	51037.749772	0.000000	0.000000	0.000000	0.000000	0.000000	0.012000	-0.014000	-1.012000	192.000000	0.000000	0.000000	0.000000	0.000000	0.000000	0.000000	0.000000	0.000000	0.000000	1749113633.108729	0.000000
186.000000	-92963.162716	57621.612563	50894.206869	0.000000	0.000000	0.000000	0.000000	0.000000	0.012000	-0.014000	-1.012000	192.000000	0.000000	0.000000	0.000000	0.000000	0.000000	0.000000	0.000000	0.000000	0.000000	1749113633.112984	0.000000
187.000000	-90493.205547	57685.560904	51123.982802	0.000000	0.000000	0.000000	0.000000	0.000000	0.012000	-0.014000	-1.012000	192.000000	0.000000	0.000000	0.000000	0.000000	0.000000	0.000000	0.000000	0.000000	0.000000	1749113633.116771	0.000000
188.000000	-86877.408549	57794.637417	51409.101654	0.000000	0.000000	0.000000	0.000000	0.000000	0.012000	-0.014000	-1.012000	192.000000	0.000000	0.000000	0.000000	0.000000	0.000000	0.000000	0.000000	0.000000	0.000000	1749113633.120697	0.000000
189.000000	-87725.523141	57796.961999	51357.379718	0.000000	0.000000	0.000000	0.000000	0.000000	0.012000	-0.014000	-1.012000	192.000000	0.000000	0.000000	0.000000	0.000000	0.000000	0.000000	0.000000	0.000000	0.000000	1749113633.124800	0.000000
190.000000	-91636.385517	57689.986550	51039.917891	0.000000	0.000000	0.000000	0.000000	0.000000	0.012000	-0.014000	-1.012000	192.000000	0.000000	0.000000	0.000000	0.000000	0.000000	0.000000	0.000000	0.000000	0.000000	1749113633.127800	0.000000
191.000000	-92961.195762	57621.411398	50894.318628	0.000000	0.000000	0.000000	0.000000	0.000000	0.012000	-0.014000	-1.012000	192.000000	0.000000	0.000000	0.000000	0.000000	0.000000	0.000000	0.000000	0.000000	0.000000	1749113633.132785	0.000000
192.000000	-90500.447512	57683.348082	51121.434703	0.000000	0.000000	0.000000	0.000000	0.000000	0.012000	-0.014000	-1.012000	192.000000	0.000000	0.000000	0.000000	0.000000	0.000000	0.000000	0.000000	0.000000	0.000000	1749113633.136820	0.000000
193.000000	-86882.594154	57793.296312	51407.872308	0.000000	0.000000	0.000000	0.000000	0.000000	0.006000	-0.010000	-1.012000	192.000000	0.000000	48.000000	255.000000	176.000000	224.000000	96.000000	0.000000	0.000000	0.000000	1749113633.140852	0.000000
194.000000	-87710.815693	57797.364330	51359.033747	0.000000	0.000000	0.000000	0.000000	0.000000	0.006000	-0.010000	-1.012000	192.000000	0.000000	0.000000	0.000000	0.000000	0.000000	0.000000	0.000000	0.000000	0.000000	1749113633.144967	0.000000
195.000000	-91623.309746	57691.774689	51042.890673	0.000000	0.000000	0.000000	0.000000	0.000000	0.006000	-0.010000	-1.012000	192.000000	0.000000	0.000000	0.000000	0.000000	0.000000	0.000000	0.000000	0.000000	0.000000	1749113633.148879	0.000000
196.000000	-92960.435803	57622.327819	50894.855070	0.000000	0.000000	0.000000	0.000000	0.000000	0.006000	-0.010000	-1.012000	192.000000	0.000000	0.000000	0.000000	0.000000	0.000000	0.000000	0.000000	0.000000	0.000000	1749113633.152830	0.000000
197.000000	-90506.638945	57682.431660	51120.250061	0.000000	0.000000	0.000000	0.000000	0.000000	0.006000	-0.010000	-1.012000	192.000000	0.000000	0.000000	0.000000	0.000000	0.000000	0.000000	0.000000	0.000000	0.000000	1749113633.155852	0.000000
198.000000	-86888.115035	57789.630626	51404.430140	0.000000	0.000000	0.000000	0.000000	0.000000	0.006000	-0.010000	-1.012000	192.000000	0.000000	0.000000	0.000000	0.000000	0.000000	0.000000	0.000000	0.000000	0.000000	1749113633.159892	0.000000
199.000000	-87714.816655	57794.927990	51357.335014	0.000000	0.000000	0.000000	0.000000	0.000000	0.006000	-0.010000	-1.012000	192.000000	0.000000	0.000000	0.000000	0.000000	0.000000	0.000000	0.000000	0.000000	0.000000	1749113633.164867	0.000000
200.000000	-91617.967679	57686.969064	51038.889711	0.000000	0.000000	0.000000	0.000000	0.000000	0.006000	-0.010000	-1.012000	192.000000	0.000000	0.000000	0.000000	0.000000	0.000000	0.000000	0.000000	0.000000	0.000000	1749113633.168853	0.000000
201.000000	-92964.302655	57619.645610	50892.262267	0.000000	0.000000	0.000000	0.000000	0.000000	0.006000	-0.010000	-1.012000	192.000000	0.000000	0.000000	0.000000	0.000000	0.000000	0.000000	0.000000	0.000000	0.000000	1749113633.172934	0.000000
202.000000	-90537.394945	57683.012805	51119.713619	0.000000	0.000000	0.000000	0.000000	0.000000	0.006000	-0.010000	-1.012000	192.000000	0.000000	0.000000	0.000000	0.000000	0.000000	0.000000	0.000000	0.000000	0.000000	1749113633.177116	0.000000
203.000000	-86898.799169	57790.368234	51405.055988	0.000000	0.000000	0.000000	0.000000	0.000000	0.006000	-0.012000	-1.010000	192.000000	0.000000	48.000000	255.000000	160.000000	224.000000	112.000000	0.000000	0.000000	0.000000	1749113633.180916	0.000000
204.000000	-87702.992583	57794.749176	51358.027918	0.000000	0.000000	0.000000	0.000000	0.000000	0.006000	-0.012000	-1.010000	192.000000	0.000000	0.000000	0.000000	0.000000	0.000000	0.000000	0.000000	0.000000	0.000000	1749113633.183911	0.000000
205.000000	-91606.635345	57688.801907	51041.706031	0.000000	0.000000	0.000000	0.000000	0.000000	0.006000	-0.012000	-1.010000	192.000000	0.000000	0.000000	0.000000	0.000000	0.000000	0.000000	0.000000	0.000000	0.000000	1749113633.187887	0.000000
206.000000	-92964.839097	57619.690313	50892.709302	0.000000	0.000000	0.000000	0.000000	0.000000	0.006000	-0.012000	-1.010000	192.000000	0.000000	0.000000	0.000000	0.000000	0.000000	0.000000	0.000000	0.000000	0.000000	1749113633.191910	0.000000
207.000000	-90553.242332	57680.688224	51117.076113	0.000000	0.000000	0.000000	0.000000	0.000000	0.006000	-0.012000	-1.010000	192.000000	0.000000	0.000000	0.000000	0.000000	0.000000	0.000000	0.000000	0.000000	0.000000	1749113633.196897	0.000000
208.000000	-86899.156797	57789.965903	51404.497195	0.000000	0.000000	0.000000	0.000000	0.000000	0.006000	-0.012000	-1.010000	192.000000	0.000000	0.000000	0.000000	0.000000	0.000000	0.000000	0.000000	0.000000	0.000000	1749113633.200870	0.000000
209.000000	-87681.154928	57796.000874	51360.330148	0.000000	0.000000	0.000000	0.000000	0.000000	0.006000	-0.012000	-1.010000	192.000000	0.000000	0.000000	0.000000	0.000000	0.000000	0.000000	0.000000	0.000000	0.000000	1749113633.204992	0.000000
210.000000	-91595.459473	57689.070128	51042.622452	0.000000	0.000000	0.000000	0.000000	0.000000	0.006000	-0.012000	-1.010000	192.000000	0.000000	0.000000	0.000000	0.000000	0.000000	0.000000	0.000000	0.000000	0.000000	1749113633.208112	0.000000
211.000000	-92965.308483	57618.572726	50890.988218	0.000000	0.000000	0.000000	0.000000	0.000000	0.006000	-0.012000	-1.010000	192.000000	0.000000	0.000000	0.000000	0.000000	0.000000	0.000000	0.000000	0.000000	0.000000	1749113633.212157	0.000000
212.000000	-90558.517344	57678.028366	51113.879813	0.000000	0.000000	0.000000	0.000000	0.000000	0.006000	-0.012000	-1.010000	192.000000	0.000000	0.000000	0.000000	0.000000	0.000000	0.000000	0.000000	0.000000	0.000000	1749113633.216004	0.000000
213.000000	-86909.148027	57788.378929	51402.597297	0.000000	0.000000	0.000000	0.000000	0.000000	0.010000	-0.014000	-1.008000	192.000000	0.000000	80.000000	255.000000	144.000000	224.000000	128.000000	0.000000	0.000000	0.000000	1749113633.220979	0.000000
214.000000	-87674.091777	57794.704472	51359.458430	0.000000	0.000000	0.000000	0.000000	0.000000	0.010000	-0.014000	-1.008000	192.000000	0.000000	0.000000	0.000000	0.000000	0.000000	0.000000	0.000000	0.000000	0.000000	1749113633.225030	0.000000
215.000000	-91578.427443	57689.695977	51044.388240	0.000000	0.000000	0.000000	0.000000	0.000000	0.010000	-0.014000	-1.008000	192.000000	0.000000	0.000000	0.000000	0.000000	0.000000	0.000000	0.000000	0.000000	0.000000	1749113633.228888	0.000000
216.000000	-92966.068443	57619.846776	50892.597543	0.000000	0.000000	0.000000	0.000000	0.000000	0.010000	-0.014000	-1.008000	192.000000	0.000000	0.000000	0.000000	0.000000	0.000000	0.000000	0.000000	0.000000	0.000000	1749113633.233003	0.000000
217.000000	-90584.043036	57681.045852	51115.936174	0.000000	0.000000	0.000000	0.000000	0.000000	0.010000	-0.014000	-1.008000	192.000000	0.000000	0.000000	0.000000	0.000000	0.000000	0.000000	0.000000	0.000000	0.000000	1749113633.235953	0.000000
218.000000	-86919.005146	57789.116536	51403.401959	0.000000	0.000000	0.000000	0.000000	0.000000	0.010000	-0.014000	-1.008000	192.000000	0.000000	0.000000	0.000000	0.000000	0.000000	0.000000	0.000000	0.000000	0.000000	1749113633.240098	0.000000
219.000000	-87660.568972	57793.698644	51359.301968	0.000000	0.000000	0.000000	0.000000	0.000000	0.010000	-0.014000	-1.008000	192.000000	0.000000	0.000000	0.000000	0.000000	0.000000	0.000000	0.000000	0.000000	0.000000	1749113633.244148	0.000000
220.000000	-91568.212696	57686.007939	51041.348403	0.000000	0.000000	0.000000	0.000000	0.000000	0.010000	-0.014000	-1.008000	192.000000	0.000000	0.000000	0.000000	0.000000	0.000000	0.000000	0.000000	0.000000	0.000000	1749113633.247960	0.000000
221.000000	-92965.487297	57615.465834	50888.551878	0.000000	0.000000	0.000000	0.000000	0.000000	0.010000	-0.014000	-1.008000	192.000000	0.000000	0.000000	0.000000	0.000000	0.000000	0.000000	0.000000	0.000000	0.000000	1749113633.253009	0.000000
222.000000	-90590.659152	57677.536628	51112.046970	0.000000	0.000000	0.000000	0.000000	0.000000	0.010000	-0.014000	-1.008000	192.000000	0.000000	0.000000	0.000000	0.000000	0.000000	0.000000	0.000000	0.000000	0.000000	1749113633.256987	0.000000
223.000000	-86924.749544	57788.557743	51402.284372	0.000000	0.000000	0.000000	0.000000	0.000000	0.012000	-0.014000	-1.012000	192.000000	0.000000	96.000000	255.000000	144.000000	224.000000	96.000000	0.000000	0.000000	0.000000	1749113633.261082	0.000000
224.000000	-87645.749765	57797.140813	51363.347633	0.000000	0.000000	0.000000	0.000000	0.000000	0.012000	-0.014000	-1.012000	192.000000	0.000000	0.000000	0.000000	0.000000	0.000000	0.000000	0.000000	0.000000	0.000000	1749113633.264082	0.000000
225.000000	-91555.740423	57693.562829	51049.640900	0.000000	0.000000	0.000000	0.000000	0.000000	0.012000	-0.014000	-1.012000	192.000000	0.000000	0.000000	0.000000	0.000000	0.000000	0.000000	0.000000	0.000000	0.000000	1749113633.268062	0.000000
226.000000	-92967.923637	57621.009066	50893.402206	0.000000	0.000000	0.000000	0.000000	0.000000	0.012000	-0.014000	-1.012000	192.000000	0.000000	0.000000	0.000000	0.000000	0.000000	0.000000	0.000000	0.000000	0.000000	1749113633.272347	0.000000
227.000000	-90604.181958	57678.922436	51112.873985	0.000000	0.000000	0.000000	0.000000	0.000000	0.012000	-0.014000	-1.012000	192.000000	0.000000	0.000000	0.000000	0.000000	0.000000	0.000000	0.000000	0.000000	0.000000	1749113633.276114	0.000000
228.000000	-86924.168399	57789.518868	51403.357256	0.000000	0.000000	0.000000	0.000000	0.000000	0.012000	-0.014000	-1.012000	192.000000	0.000000	0.000000	0.000000	0.000000	0.000000	0.000000	0.000000	0.000000	0.000000	1749113633.281070	0.000000
229.000000	-87632.249311	57796.537315	51363.660558	0.000000	0.000000	0.000000	0.000000	0.000000	0.012000	-0.014000	-1.012000	192.000000	0.000000	0.000000	0.000000	0.000000	0.000000	0.000000	0.000000	0.000000	0.000000	1749113633.285070	0.000000
230.000000	-91540.898864	57688.757204	51046.086972	0.000000	0.000000	0.000000	0.000000	0.000000	0.012000	-0.014000	-1.012000	192.000000	0.000000	0.000000	0.000000	0.000000	0.000000	0.000000	0.000000	0.000000	0.000000	1749113633.289124	0.000000
